831
833
831
834
836
836
835
838
837
837
844
846
845
845
844
846
850
854
853
853
857
858
859
860
861
865
867
866
864
867
870
867
868
868
868
869
871
869
869
870
869
869
868
862
856
852
853
850
844
840
837
838
836
831
829
828
829
829
826
823
822
824
826
822
820
822
820
821
822
820
821
829
830
829
827
827
829
830
828
823
822
822
822
828
829
829
830
831
832
826
823
827
829
828
823
822
823
822
822
824
824
825
826
825
823
821
819
817
820
821
818
816
816
819
819
817
817
819
817
816
817
816
818
820
817
816
818
823
828
834
834
831
827
828
830
834
842
842
839
837
836
834
831
830
822
811
807
806
806
802
799
798
799
802
801
801
804
806
806
807
810
819
848
891
935
971
986
991
953
818
670
582
555
581
631
681
735
774
803
822
829
832
831
831
832
833
832
834
833
833
832
834
833
833
839
840
839
841
844
847
847
848
850
852
855
857
858
858
858
860
863
863
863
865
870
872
872
868
865
867
870
870
870
871
872
873
873
871
869
867
865
861
854
847
841
840
839
835
832
830
831
830
827
824
825
827
826
824
821
819
819
822
822
820
819
819
821
822
820
818
821
823
821
820
821
822
823
822
821
822
823
824
826
823
818
819
824
826
825
822
821
823
821
819
818
819
820
820
818
814
816
817
815
814
815
817
817
818
818
814
812
811
815
814
810
811
812
815
813
811
812
811
813
816
819
823
829
834
832
825
824
830
841
847
842
834
832
834
833
829
823
817
811
806
802
796
793
792
790
790
791
797
801
801
799
799
799
800
810
835
874
916
958
982
987
954
832
685
590
552
570
619
668
721
767
799
816
820
822
823
823
822
823
823
826
827
827
826
827
828
828
828
828
833
838
840
841
844
846
847
847
847
847
846
849
851
848
849
855
858
858
859
861
864
865
862
861
860
858
857
858
859
858
857
858
856
853
849
847
843
838
836
830
825
822
819
815
812
810
810
808
807
808
809
810
811
810
810
809
810
811
809
808
809
812
812
813
817
817
817
819
819
818
817
817
821
823
823
821
819
822
826
825
824
826
828
828
825
823
825
826
826
823
820
821
823
824
822
820
819
820
820
815
815
820
822
824
823
821
819
819
821
819
819
818
818
818
815
815
819
822
825
832
839
840
837
835
833
833
836
839
837
834
834
836
836
834
830
822
815
810
805
803
802
800
800
802
804
802
802
802
803
807
805
802
812
841
885
933
968
981
983
929
791
663
579
553
583
631
682
733
772
802
817
822
824
828
830
835
837
834
835
837
837
834
833
836
840
842
842
843
841
841
843
840
839
838
843
850
852
852
852
856
858
858
862
863
863
865
867
865
861
861
863
864
863
861
860
857
858
863
867
869
867
861
855
851
841
832
832
827
822
813
808
812
818
821
822
820
817
820
819
814
815
815
812
806
805
812
813
813
814
813
812
815
814
810
809
808
809
808
805
803
802
802
800
799
796
794
791
792
793
791
785
784
788
790
791
789
787
783
782
787
788
787
783
783
781
777
778
781
777
774
774
777
778
778
777
776
775
775
777
777
779
784
783
782
791
800
795
789
793
797
802
807
809
805
800
800
800
800
798
792
786
779
777
777
773
766
763
769
775
776
774
770
772
777
775
768
771
796
833
873
915
942
952
935
840
697
598
541
537
579
631
678
719
756
781
791
795
794
797
801
801
799
797
795
798
799
800
801
806
809
811
812
810
811
815
815
814
814
816
816
822
822
822
822
821
825
827
825
829
835
831
828
831
834
836
837
836
832
831
836
838
836
832
827
828
827
822
817
813
809
804
800
797
790
787
788
786
785
781
779
781
781
779
775
776
779
780
780
779
776
776
777
778
779
776
775
777
778
777
776
777
778
778
777
777
778
778
780
777
774
776
776
775
773
771
775
776
776
772
768
768
770
773
773
770
769
769
770
771
769
767
768
771
768
769
772
771
770
768
767
769
768
766
767
769
768
774
786
789
781
776
778
781
787
791
790
784
781
783
782
774
770
766
762
759
754
747
743
745
746
744
744
745
747
747
748
746
746
750
754
771
805
846
886
905
905
873
767
649
568
520
521
555
600
645
686
712
734
748
753
753
755
758
760
764
767
764
762
759
761
768
770
771
772
774
775
773
773
772
776
779
776
777
780
783
783
782
783
786
787
784
787
793
794
795
795
794
792
794
795
794
793
791
791
793
795
793
789
787
784
776
771
769
765
760
756
752
749
746
745
743
742
743
741
742
742
739
737
737
737
736
737
739
737
736
738
737
739
741
742
744
743
741
736
736
742
743
740
738
739
740
739
737
735
740
742
740
740
738
738
739
736
731
730
728
727
730
728
728
727
728
730
732
730
726
726
728
726
726
728
735
741
747
750
744
741
746
754
760
759
754
750
750
751
746
742
736
731
726
723
720
717
714
712
711
712
711
709
711
714
715
717
719
722
737
771
816
862
892
900
888
803
652
534
471
466
507
558
611
665
700
725
737
741
743
745
746
748
752
755
754
754
757
760
759
757
759
759
761
764
767
770
774
777
777
778
782
783
785
788
790
791
794
798
800
801
802
806
809
810
809
806
808
813
813
810
811
816
821
821
820
815
812
809
807
804
799
797
796
794
791
790
790
792
790
787
789
789
787
791
792
790
791
794
797
798
795
795
803
808
807
808
808
811
815
819
822
823
824
828
832
832
831
831
833
837
838
837
839
843
848
851
852
851
850
851
850
851
851
853
857
860
861
860
866
874
875
871
870
871
873
875
875
883
893
900
910
912
910
915
924
934
942
936
931
933
934
931
926
920
916
917
916
913
909
905
913
924
928
930
932
936
937
933
936
942
948
960
990
1036
1084
1127
1151
1156
1106
967
832
748
724
753
807
865
927
970
989
1002
1013
1022
1026
1027
1032
1039
1047
1050
1051
1056
1059
1063
1069
1073
1075
1081
1089
1090
1091
1089
1092
1101
1108
1110
1113
1118
1123
1126
1129
1133
1138
1142
1144
1146
1147
1151
1154
1160
1164
1162
1166
1172
1174
1173
1180
1184
1183
1186
1183
1181
1178
1172
1172
1174
1172
1168
1167
1171
1172
1170
1164
1163
1168
1169
1171
1175
1169
1165
1172
1184
1184
1177
1183
1186
1184
1181
1182
1187
1197
1204
1197
1201
1210
1208
1207
1207
1205
1204
1204
1207
1215
1224
1218
1219
1227
1229
1227
1216
1225
1235
1232
1230
1224
1229
1228
1224
1230
1227
1219
1219
1231
1233
1232
1235
1239
1243
1235
1232
1241
1250
1253
1263
1271
1272
1269
1267
1274
1288
1296
1288
1287
1294
1289
1288
1288
1287
1276
1270
1262
1255
1256
1263
1265
1259
1262
1270
1261
1258
1264
1276
1278
1274
1276
1289
1319
1355
1396
1442
1467
1476
1455
1328
1163
1061
1026
1045
1096
1151
1207
1253
1287
1309
1316
1316
1314
1315
1320
1330
1330
1330
1337
1330
1325
1329
1338
1339
1333
1331
1338
1346
1350
1349
1349
1349
1349
1354
1363
1366
1362
1365
1369
1374
1378
1378
1381
1385
1387
1387
1389
1391
1392
1396
1403
1411
1413
1412
1414
1415
1414
1411
1408
1406
1403
1399
1397
1395
1395
1393
1385
1381
1379
1380
1378
1374
1372
1373
1374
1369
1369
1374
1377
1377
1381
1382
1382
1385
1384
1386
1387
1387
1384
1382
1383
1386
1382
1383
1388
1386
1386
1391
1394
1394
1396
1395
1394
1397
1399
1403
1402
1401
1400
1401
1402
1401
1400
1398
1401
1408
1407
1403
1399
1405
1412
1412
1411
1409
1409
1410
1409
1407
1407
1407
1410
1415
1418
1421
1433
1435
1431
1431
1435
1440
1448
1446
1438
1435
1435
1434
1434
1432
1424
1419
1418
1415
1411
1407
1404
1404
1402
1403
1402
1400
1401
1400
1395
1394
1394
1400
1426
1465
1500
1535
1561
1572
1551
1437
1295
1195
1149
1166
1215
1256
1298
1350
1391
1406
1407
1412
1416
1423
1422
1412
1413
1417
1428
1434
1427
1427
1430
1431
1428
1428
1433
1444
1437
1429
1436
1451
1457
1453
1454
1458
1465
1467
1469
1472
1469
1472
1477
1482
1487
1478
1484
1492
1487
1483
1484
1490
1486
1490
1496
1495
1499
1496
1494
1490
1487
1486
1474
1469
1467
1468
1467
1454
1454
1458
1456
1455
1448
1445
1452
1455
1447
1439
1433
1432
1433
1428
1427
1421
1418
1422
1420
1412
1418
1424
1416
1408
1411
1420
1413
1411
1407
1406
1404
1399
1401
1401
1398
1395
1388
1386
1376
1377
1394
1392
1381
1387
1381
1369
1381
1378
1364
1363
1369
1370
1376
1382
1365
1358
1369
1381
1386
1382
1381
1383
1376
1378
1385
1393
1405
1404
1392
1387
1386
1379
1368
1364
1363
1359
1355
1356
1360
1355
1349
1349
1351
1355
1353
1352
1351
1350
1349
1345
1347
1360
1390
1425
1462
1499
1516
1516
1457
1308
1172
1091
1077
1114
1168
1220
1274
1314
1342
1354
1353
1352
1351
1353
1354
1356
1357
1356
1354
1355
1364
1366
1359
1358
1367
1368
1365
1365
1368
1371
1371
1374
1365
1362
1377
1382
1378
1377
1377
1373
1372
1375
1376
1382
1379
1381
1388
1384
1382
1392
1386
1380
1388
1390
1386
1391
1392
1383
1387
1388
1380
1370
1366
1364
1360
1356
1349
1356
1354
1339
1334
1340
1335
1336
1335
1330
1327
1326
1324
1324
1325
1327
1324
1322
1322
1322
1328
1326
1328
1332
1329
1329
1330
1326
1326
1330
1333
1332
1328
1326
1329
1336
1337
1337
1341
1345
1344
1344
1343
1342
1344
1347
1355
1353
1352
1354
1352
1349
1355
1365
1372
1372
1367
1363
1361
1361
1359
1356
1348
1338
1334
1332
1330
1325
1319
1316
1314
1318
1321
1324
1324
1323
1324
1322
1323
1324
1335
1363
1399
1443
1480
1503
1509
1437
1282
1157
1090
1079
1115
1165
1213
1263
1300
1326
1335
1333
1333
1335
1335
1335
1335
1336
1337
1339
1339
1338
1340
1345
1347
1346
1344
1343
1345
1348
1350
1352
1354
1357
1359
1360
1360
1358
1360
1362
1363
1364
1365
1365
1366
1368
1369
1367
1368
1369
1367
1365
1363
1363
1365
1367
1367
1363
1358
1357
1357
1352
1348
1345
1342
1342
1338
1333
1331
1331
1331
1330
1327
1320
1314
1322
1331
1332
1325
1322
1322
1322
1321
1319
1318
1318
1322
1326
1326
1327
1328
1327
1327
1325
1321
1324
1330
1330
1327
1326
1326
1327
1325
1323
1324
1325
1324
1323
1325
1332
1337
1339
1339
1333
1330
1336
1347
1354
1353
1346
1343
1345
1347
1346
1339
1331
1325
1314
1307
1304
1300
1296
1299
1298
1292
1296
1300
1303
1302
1299
1300
1301
1305
1317
1345
1380
1420
1453
1470
1464
1380
1238
1133
1076
1071
1106
1151
1206
1253
1284
1301
1308
1310
1310
1310
1307
1306
1314
1316
1314
1314
1315
1318
1320
1320
1319
1319
1322
1328
1327
1324
1327
1328
1329
1328
1330
1330
1329
1333
1334
1334
1338
1341
1340
1340
1339
1339
1341
1341
1339
1339
1338
1338
1339
1339
1342
1343
1339
1337
1338
1337
1333
1331
1326
1323
1317
1312
1309
1308
1307
1302
1297
1294
1292
1292
1291
1288
1290
1290
1289
1286
1284
1286
1288
1289
1289
1290
1289
1288
1289
1288
1285
1285
1286
1288
1286
1286
1287
1285
1285
1286
1285
1280
1280
1281
1282
1281
1276
1276
1280
1284
1291
1294
1294
1292
1284
1284
1291
1296
1302
1304
1296
1291
1291
1291
1288
1283
1276
1270
1265
1261
1258
1253
1250
1252
1253
1253
1251
1248
1247
1248
1249
1248
1244
1251
1265
1295
1332
1371
1407
1429
1432
1354
1205
1093
1027
1017
1050
1094
1143
1191
1226
1250
1259
1259
1257
1256
1256
1258
1260
1261
1261
1260
1258
1254
1254
1259
1264
1266
1266
1264
1265
1266
1269
1266
1264
1269
1271
1272
1272
1273
1274
1272
1271
1270
1272
1273
1274
1272
1270
1268
1270
1273
1271
1270
1271
1272
1272
1275
1275
1271
1269
1268
1262
1259
1254
1250
1247
1242
1236
1232
1230
1229
1229
1225
1222
1220
1222
1222
1221
1221
1221
1220
1219
1216
1217
1220
1221
1218
1212
1212
1213
1212
1212
1210
1207
1208
1208
1209
1208
1207
1206
1205
1206
1203
1200
1196
1188
1187
1192
1193
1191
1191
1196
1202
1208
1209
1202
1197
1201
1209
1218
1223
1219
1213
1213
1211
1206
1204
1195
1183
1180
1177
1174
1170
1168
1168
1167
1169
1173
1173
1172
1170
1168
1170
1171
1171
1174
1194
1230
1270
1309
1332
1339
1306
1189
1069
997
956
963
999
1041
1082
1121
1152
1176
1190
1192
1192
1195
1198
1196
1194
1194
1196
1201
1201
1196
1195
1199
1203
1204
1206
1210
1212
1214
1214
1214
1214
1216
1218
1221
1223
1221
1223
1227
1227
1227
1229
1231
1232
1233
1233
1231
1231
1233
1232
1230
1232
1237
1236
1236
1237
1234
1233
1231
1229
1222
1215
1213
1212
1211
1207
1201
1198
1197
1198
1196
1194
1192
1191
1192
1193
1195
1193
1190
1189
1189
1190
1191
1194
1198
1197
1196
1197
1196
1195
1193
1192
1192
1196
1196
1196
1195
1196
1200
1201
1200
1201
1201
1201
1202
1202
1200
1200
1202
1206
1213
1213
1209
1205
1205
1215
1224
1230
1229
1225
1222
1220
1221
1217
1214
1209
1201
1195
1185
1182
1181
1180
1180
1180
1183
1184
1186
1186
1185
1185
1185
1185
1187
1199
1229
1272
1320
1359
1378
1377
1301
1146
1015
940
927
965
1015
1064
1119
1160
1185
1201
1204
1203
1201
1204
1206
1205
1206
1206
1208
1210
1208
1211
1215
1216
1219
1222
1222
1220
1219
1220
1225
1226
1226
1228
1231
1233
1234
1235
1237
1240
1239
1235
1241
1243
1243
1243
1244
1242
1242
1243
1244
1245
1245
1243
1245
1248
1248
1245
1241
1238
1236
1233
1227
1220
1216
1215
1210
1207
1204
1201
1205
1205
1203
1205
1203
1200
1201
1200
1198
1197
1197
1199
1198
1196
1197
1198
1200
1201
1202
1204
1202
1204
1206
1207
1206
1206
1205
1207
1207
1205
1205
1204
1204
1203
1202
1203
1206
1208
1206
1203
1203
1205
1205
1204
1207
1211
1218
1222
1223
1218
1216
1223
1231
1237
1238
1230
1224
1225
1223
1218
1211
1206
1205
1198
1191
1187
1186
1189
1191
1188
1183
1185
1188
1188
1187
1186
1186
1186
1192
1206
1236
1278
1326
1367
1388
1391
1327
1167
1023
940
927
966
1019
1076
1129
1166
1191
1206
1211
1211
1211
1210
1208
1207
1210
1210
1211
1213
1213
1216
1219
1218
1221
1225
1229
1231
1229
1230
1231
1230
1229
1227
1229
1232
1233
1233
1237
1241
1239
1242
1246
1247
1248
1248
1252
1253
1251
1248
1248
1249
1248
1246
1245
1249
1250
1248
1242
1237
1233
1230
1226
1221
1217
1214
1213
1212
1210
1204
1203
1203
1201
1201
1199
1199
1198
1200
1201
1198
1199
1202
1203
1199
1197
1199
1202
1203
1202
1201
1205
1205
1207
1207
1207
1207
1206
1208
1205
1203
1201
1198
1205
1210
1209
1205
1205
1205
1206
1204
1203
1205
1204
1202
1203
1202
1199
1200
1201
1198
1192
1192
1194
1198
1201
1206
1212
1218
1221
1218
1212
1214
1223
1231
1233
1226
1216
1214
1213
1211
1207
1202
1198
1192
1188
1185
1182
1179
1178
1177
1175
1173
1173
1172
1171
1172
1173
1179
1179
1183
1196
1225
1269
1314
1350
1367
1363
1282
1122
994
924
918
960
1014
1069
1121
1157
1178
1189
1193
1193
1193
1194
1195
1198
1200
1202
1205
1208
1209
1210
1213
1212
1212
1213
1216
1217
1216
1217
1223
1229
1234
1231
1231
1236
1240
1240
1239
1242
1241
1242
1245
1244
1246
1248
1246
1246
1249
1250
1251
1254
1254
1253
1252
1254
1256
1254
1249
1243
1239
1236
1227
1222
1219
1218
1217
1213
1211
1208
1207
1208
1208
1207
1204
1202
1203
1204
1201
1198
1200
1201
1202
1200
1200
1199
1200
1203
1203
1201
1200
1199
1199
1201
1202
1201
1203
1203
1201
1202
1200
1197
1199
1200
1199
1197
1198
1198
1198
1199
1195
1193
1195
1197
1198
1196
1193
1191
1192
1194
1192
1193
1193
1193
1189
1188
1187
1187
1189
1189
1188
1185
1184
1186
1187
1186
1186
1185
1185
1190
1197
1201
1202
1200
1197
1197
1198
1210
1216
1212
1209
1205
1204
1200
1196
1193
1183
1180
1178
1173
1168
1166
1164
1163
1164
1164
1166
1167
1165
1165
1164
1163
1165
1171
1192
1227
1268
1308
1333
1344
1325
1216
1059
949
898
906
953
1005
1062
1111
1148
1166
1168
1169
1172
1175
1176
1175
1176
1178
1179
1179
1177
1178
1181
1182
1181
1180
1181
1181
1180
1183
1184
1188
1194
1195
1196
1198
1197
1198
1202
1203
1202
1204
1205
1207
1210
1210
1209
1212
1214
1211
1210
1210
1211
1212
1212
1212
1209
1211
1212
1211
1209
1204
1199
1197
1194
1185
1180
1177
1175
1174
1172
1170
1169
1168
1168
1163
1160
1160
1161
1161
1160
1159
1158
1159
1160
1160
1159
1158
1160
1163
1160
1161
1161
1158
1156
1158
1162
1163
1163
1163
1163
1163
1162
1162
1160
1162
1162
1159
1160
1161
1161
1158
1156
1154
1151
1150
1150
1151
1154
1155
1153
1151
1150
1149
1149
1150
1152
1148
1145
1145
1148
1149
1148
1145
1146
1148
1146
1143
1144
1151
1151
1149
1148
1147
1148
1147
1146
1144
1143
1147
1155
1166
1169
1164
1157
1154
1156
1164
1171
1172
1169
1169
1168
1166
1159
1155
1152
1146
1140
1133
1130
1131
1129
1126
1125
1129
1132
1129
1129
1129
1131
1134
1136
1140
1151
1178
1216
1259
1293
1311
1313
1259
1119
989
909
882
908
959
1007
1061
1105
1133
1146
1151
1151
1149
1150
1153
1153
1151
1151
1155
1156
1154
1155
1156
1158
1158
1161
1162
1160
1159
1160
1162
1164
1164
1165
1169
1173
1174
1175
1174
1174
1175
1173
1174
1177
1179
1178
1177
1175
1174
1177
1177
1176
1177
1176
1176
1176
1178
1176
1176
1172
1168
1166
1160
1154
1153
1150
1147
1143
1138
1135
1133
1130
1127
1125
1127
1128
1127
1124
1122
1123
1121
1121
1119
1116
1120
1123
1125
1125
1122
1120
1121
1123
1120
1117
1119
1122
1121
1117
1116
1115
1113
1116
1116
1116
1113
1111
1112
1115
1114
1112
1112
1113
1113
1111
1108
1110
1110
1110
1109
1104
1099
1101
1103
1102
1099
1101
1101
1097
1095
1094
1092
1092
1095
1097
1093
1088
1088
1090
1087
1089
1088
1087
1085
1082
1083
1086
1087
1092
1097
1100
1098
1095
1090
1088
1092
1103
1112
1111
1105
1103
1103
1103
1102
1097
1090
1081
1074
1068
1065
1062
1061
1064
1065
1066
1065
1063
1063
1064
1063
1062
1063
1068
1089
1126
1166
1204
1217
1216
1183
1077
963
887
844
848
883
924
963
1003
1028
1048
1063
1064
1065
1071
1074
1074
1074
1073
1074
1078
1079
1078
1080
1082
1084
1084
1080
1078
1079
1080
1079
1079
1079
1084
1089
1090
1090
1089
1090
1093
1093
1092
1092
1093
1097
1098
1098
1096
1093
1090
1093
1097
1095
1094
1097
1099
1096
1095
1095
1093
1092
1090
1083
1079
1075
1071
1067
1060
1054
1053
1054
1053
1049
1044
1041
1040
1038
1038
1038
1040
1042
1039
1037
1038
1038
1036
1034
1031
1031
1036
1036
1036
1034
1031
1031
1035
1034
1030
1026
1031
1036
1036
1036
1035
1036
1038
1038
1038
1040
1038
1039
1042
1040
1037
1036
1037
1037
1037
1035
1032
1029
1033
1036
1034
1033
1033
1034
1034
1033
1030
1030
1032
1033
1035
1034
1033
1035
1037
1042
1050
1054
1054
1049
1048
1053
1060
1068
1068
1058
1052
1049
1048
1048
1042
1034
1028
1025
1020
1018
1015
1014
1017
1018
1019
1018
1014
1015
1018
1019
1018
1017
1024
1044
1081
1128
1167
1184
1184
1154
1036
897
815
773
777
818
863
912
959
995
1016
1027
1030
1034
1037
1031
1025
1029
1036
1038
1039
1040
1035
1035
1037
1038
1042
1047
1052
1053
1055
1053
1050
1053
1054
1055
1058
1060
1061
1063
1069
1069
1067
1066
1068
1065
1061
1063
1068
1074
1075
1074
1069
1065
1069
1074
1077
1079
1074
1069
1069
1066
1058
1051
1049
1049
1046
1040
1033
1031
1028
1023
1026
1030
1028
1024
1022
1018
1015
1018
1020
1019
1019
1017
1020
1023
1027
1029
1026
1024
1023
1025
1021
1020
1019
1022
1024
1023
1021
1025
1029
1028
1026
1024
1023
1023
1022
1022
1025
1023
1019
1012
1014
1022
1023
1021
1021
1022
1021
1019
1021
1020
1016
1013
1012
1016
1019
1023
1023
1025
1023
1022
1025
1026
1026
1031
1040
1044
1041
1033
1027
1033
1043
1052
1054
1047
1040
1044
1044
1035
1029
1025
1020
1019
1017
1008
1003
1006
1009
1009
1008
1014
1013
1012
1013
1011
1004
999
1012
1038
1074
1116
1164
1194
1204
1191
1094
937
821
759
758
801
855
914
965
997
1020
1029
1037
1039
1037
1033
1031
1033
1037
1040
1035
1037
1045
1044
1043
1044
1045
1043
1043
1045
1044
1041
1042
1043
1041
1039
1041
1046
1050
1051
1046
1037
1043
1053
1055
1058
1062
1065
1068
1067
1065
1060
1060
1062
1061
1058
1057
1059
1061
1063
1059
1052
1050
1049
1048
1042
1032
1027
1026
1022
1018
1019
1018
1020
1018
1014
1014
1014
1012
1017
1021
1021
1021
1014
1012
1013
1013
1012
1009
1012
1012
1012
1016
1020
1023
1023
1020
1016
1018
1023
1024
1022
1022
1023
1018
1018
1024
1026
1025
1023
1027
1028
1023
1022
1022
1027
1027
1023
1018
1017
1020
1020
1016
1013
1012
1015
1018
1021
1022
1021
1023
1024
1020
1017
1017
1020
1021
1024
1031
1040
1044
1037
1029
1033
1041
1047
1050
1045
1038
1038
1038
1038
1035
1025
1014
1012
1014
1012
1004
1002
1004
1004
1002
999
1000
1000
1004
1007
1004
1000
1005
1018
1046
1086
1128
1166
1189
1201
1162
1021
875
784
751
771
817
870
927
973
1005
1019
1021
1018
1023
1029
1031
1033
1034
1034
1034
1033
1035
1035
1037
1037
1038
1038
1038
1038
1037
1039
1043
1045
1048
1048
1046
1047
1049
1054
1060
1061
1061
1062
1063
1060
1060
1065
1072
1079
1075
1072
1068
1066
1066
1071
1071
1068
1068
1070
1067
1063
1060
1053
1045
1042
1043
1039
1037
1034
1030
1025
1023
1025
1024
1024
1022
1019
1016
1017
1017
1020
1021
1019
1019
1018
1019
1017
1015
1019
1023
1021
1019
1017
1019
1025
1027
1025
1023
1022
1022
1021
1020
1020
1023
1025
1025
1025
1027
1027
1024
1024
1025
1025
1023
1021
1018
1017
1016
1016
1015
1013
1017
1018
1017
1020
1020
1019
1016
1012
1012
1012
1012
1007
1001
1001
1003
1006
1008
1009
1009
1010
1016
1020
1024
1032
1036
1032
1021
1019
1028
1038
1047
1043
1033
1032
1032
1028
1022
1015
1012
1011
1009
1003
996
990
989
988
989
989
986
984
988
991
994
994
995
1001
1022
1060
1099
1133
1156
1170
1155
1055
909
805
749
745
787
835
886
938
972
992
998
1000
1000
998
1000
1000
1002
1005
1011
1012
1009
1011
1013
1012
1013
1013
1013
1017
1019
1019
1019
1020
1020
1022
1024
1028
1029
1028
1028
1027
1024
1029
1034
1034
1033
1032
1032
1034
1035
1035
1038
1036
1036
1037
1034
1032
1030
1027
1026
1025
1026
1022
1017
1013
1008
1002
1000
1001
1002
1002
998
992
991
991
989
987
981
978
982
985
982
981
979
979
981
981
981
978
981
984
981
978
977
980
981
978
978
978
977
977
975
977
977
974
975
972
972
973
973
973
975
978
978
974
968
967
967
967
967
967
967
968
970
969
966
966
964
962
957
957
960
962
962
963
964
964
963
964
970
979
982
975
968
975
983
994
996
990
985
984
984
978
971
966
962
961
961
956
951
950
956
959
952
945
947
950
954
953
952
953
956
966
990
1025
1064
1101
1118
1112
1054
922
810
742
719
739
776
818
870
910
938
958
969
973
978
980
974
972
973
977
984
984
981
984
989
989
987
990
994
994
993
993
999
1000
1000
1004
1005
1006
1008
1010
1013
1017
1019
1017
1019
1020
1019
1015
1015
1019
1023
1026
1026
1026
1028
1029
1029
1026
1024
1025
1023
1017
1011
1007
1006
1005
1002
996
990
987
985
979
974
974
977
974
971
975
974
970
969
973
973
969
970
973
970
968
969
972
975
976
976
971
973
977
979
980
975
972
971
971
970
968
969
968
970
971
969
967
965
969
968
965
968
971
973
969
967
965
962
962
964
965
964
963
965
965
966
966
962
961
962
963
963
966
968
973
982
987
990
988
983
987
993
999
1000
995
991
988
989
985
983
976
968
966
965
960
953
950
952
957
960
957
955
954
954
956
957
958
960
976
1007
1048
1093
1130
1150
1153
1098
946
796
711
693
731
784
838
895
936
961
972
979
979
978
982
984
984
986
988
989
989
987
982
982
987
987
990
993
994
997
999
1002
1002
1002
1003
1001
999
1003
1008
1011
1013
1015
1015
1017
1020
1021
1022
1019
1019
1021
1023
1023
1020
1019
1021
1023
1022
1019
1018
1019
1018
1015
1013
1009
1005
1001
994
988
988
990
988
986
986
984
983
985
984
982
981
982
985
990
988
987
988
986
987
988
987
989
990
992
992
990
996
999
999
1002
1002
998
1001
1006
1005
1003
1000
1001
1003
1004
1007
1005
1005
1004
1004
1007
1006
1004
1005
1003
1006
1008
1007
1008
1010
1008
1007
1007
1009
1010
1006
1005
1006
1008
1010
1010
1009
1020
1029
1036
1037
1028
1026
1034
1041
1047
1049
1046
1041
1043
1045
1042
1038
1033
1030
1025
1020
1018
1016
1015
1014
1013
1015
1016
1016
1013
1011
1012
1017
1021
1022
1038
1073
1119
1170
1209
1223
1225
1174
1032
890
802
779
813
866
922
976
1016
1042
1056
1058
1059
1060
1064
1067
1069
1073
1073
1071
1072
1080
1084
1084
1083
1086
1089
1092
1090
1088
1095
1101
1106
1112
1117
1119
1121
1121
1118
1118
1125
1130
1136
1136
1137
1138
1140
1144
1146
1144
1145
1144
1142
1141
1143
1147
1149
1149
1147
1146
1145
1144
1144
1140
1131
1127
1127
1127
1124
1121
1116
1115
1117
1117
1116
1112
1111
1111
1114
1114
1113
1116
1116
1116
1117
1122
1129
1131
1130
1127
1127
1133
1136
1135
1136
1138
1139
1141
1142
1139
1138
1141
1147
1149
1151
1151
1151
1152
1153
1155
1154
1153
1154
1155
1157
1158
1156
1156
1157
1153
1151
1149
1150
1154
1157
1155
1153
1157
1161
1161
1160
1159
1156
1155
1156
1155
1158
1162
1166
1175
1182
1185
1179
1172
1173
1178
1185
1192
1189
1185
1186
1189
1187
1187
1185
1178
1172
1169
1166
1164
1162
1160
1159
1159
1157
1161
1162
1160
1159
1166
1172
1173
1182
1206
1242
1286
1327
1352
1365
1350
1242
1081
968
923
939
990
1041
1097
1148
1182
1205
1213
1213
1213
1216
1217
1218
1217
1221
1224
1226
1228
1228
1227
1229
1230
1233
1233
1232
1233
1237
1241
1243
1245
1245
1246
1251
1250
1250
1256
1259
1261
1264
1267
1268
1270
1273
1272
1273
1274
1277
1282
1283
1282
1281
1282
1281
1283
1283
1277
1275
1275
1273
1273
1271
1264
1259
1256
1253
1249
1249
1248
1246
1243
1240
1240
1240
1239
1241
1241
1239
1240
1242
1245
1245
1246
1248
1252
1254
1253
1253
1255
1254
1250
1248
1248
1248
1249
1253
1253
1251
1252
1256
1258
1257
1255
1254
1253
1252
1253
1255
1258
1257
1258
1259
1257
1256
1256
1256
1255
1252
1253
1255
1255
1253
1253
1252
1255
1262
1266
1263
1260
1257
1257
1254
1252
1250
1251
1254
1257
1261
1268
1278
1283
1280
1275
1276
1286
1293
1295
1288
1281
1279
1279
1275
1270
1264
1258
1254
1249
1246
1245
1246
1247
1248
1245
1246
1251
1253
1252
1253
1254
1251
1253
1266
1292
1329
1367
1401
1423
1427
1373
1233
1105
1023
999
1029
1077
1132
1192
1234
1259
1270
1274
1277
1280
1282
1279
1279
1281
1283
1282
1278
1277
1281
1287
1290
1291
1291
1291
1293
1294
1291
1288
1289
1292
1294
1296
1297
1299
1304
1306
1306
1306
1306
1309
1313
1314
1312
1311
1313
1315
1313
1309
1307
1307
1310
1310
1310
1312
1310
1310
1307
1299
1294
1294
1291
1286
1278
1268
1262
1262
1265
1265
1260
1256
1254
1252
1251
1252
1253
1254
1255
1249
1244
1243
1245
1249
1250
1248
1246
1246
1245
1246
1246
1245
1240
1235
1235
1240
1242
1245
1251
1252
1248
1245
1244
1243
1240
1236
1231
1229
1230
1230
1230
1229
1227
1227
1228
1227
1223
1217
1216
1219
1223
1224
1222
1223
1221
1219
1215
1214
1215
1215
1213
1208
1209
1215
1217
1225
1225
1220
1211
1206
1213
1226
1236
1238
1234
1226
1223
1221
1217
1213
1205
1194
1189
1187
1186
1182
1177
1177
1180
1182
1182
1179
1176
1178
1175
1168
1172
1180
1189
1214
1251
1291
1323
1333
1321
1258
1139
1045
983
952
967
1002
1040
1081
1114
1143
1164
1177
1186
1189
1191
1188
1183
1184
1189
1189
1186
1186
1189
1189
1190
1192
1189
1188
1189
1187
1186
1190
1193
1192
1193
1195
1197
1198
1198
1199
1201
1201
1202
1198
1203
1206
1202
1202
1202
1201
1204
1202
1195
1194
1194
1189
1186
1196
1201
1195
1189
1187
1187
1183
1180
1172
1165
1164
1164
1158
1156
1154
1146
1141
1143
1144
1145
1142
1135
1138
1140
1141
1139
1133
1132
1137
1144
1145
1147
1145
1140
1140
1138
1137
1138
1139
1137
1133
1132
1134
1136
1135
1133
1133
1132
1130
1129
1124
1126
1124
1122
1123
1125
1125
1123
1125
1126
1118
1118
1121
1123
1123
1128
1134
1134
1133
1129
1128
1130
1136
1147
1148
1138
1129
1129
1132
1132
1127
1117
1108
1099
1102
1105
1101
1099
1099
1098
1097
1105
1110
1107
1097
1095
1096
1095
1094
1109
1143
1179
1222
1247
1252
1229
1135
1001
922
881
869
901
945
986
1027
1059
1075
1085
1095
1105
1108
1108
1106
1102
1103
1109
1113
1114
1110
1108
1111
1113
1116
1115
1111
1115
1117
1114
1112
1116
1121
1122
1119
1119
1122
1127
1126
1128
1132
1131
1132
1136
1138
1136
1135
1132
1130
1132
1129
1119
1116
1118
1123
1127
1122
1118
1119
1114
1111
1111
1108
1108
1102
1094
1088
1086
1084
1079
1074
1076
1072
1066
1065
1066
1065
1061
1061
1061
1066
1068
1063
1064
1070
1067
1063
1069
1072
1066
1061
1057
1058
1058
1056
1057
1054
1052
1053
1057
1057
1056
1054
1058
1063
1058
1054
1061
1064
1060
1059
1058
1057
1060
1057
1056
1059
1064
1071
1070
1065
1065
1066
1064
1056
1051
1045
1043
1044
1038
1035
1034
1030
1025
1028
1029
1033
1034
1033
1038
1037
1037
1036
1037
1050
1079
1119
1159
1189
1184
1148
1071
953
872
817
803
838
886
921
955
990
1010
1021
1036
1038
1040
1047
1061
1058
1047
1046
1045
1050
1051
1052
1051
1046
1047
1055
1063
1056
1048
1056
1058
1057
1057
1059
1064
1068
1066
1064
1066
1065
1068
1074
1075
1069
1066
1067
1063
1063
1075
1079
1066
1061
1065
1072
1073
1067
1057
1044
1040
1056
1064
1052
1042
1040
1036
1032
1025
1023
1020
1018
1020
1018
1015
1009
1002
1007
1012
1008
996
1002
1007
1010
1016
1012
1011
1013
1010
1009
1010
1017
1014
1014
1012
1000
1002
1015
1019
1016
1010
1008
1010
1014
1020
1023
1020
1017
1013
1010
1017
1029
1033
1037
1037
1035
1028
1026
1025
1022
1019
1015
1016
1001
991
1001
999
993
994
994
994
994
1001
1005
1000
1000
995
993
1003
1023
1052
1084
1122
1145
1147
1118
1034
917
842
803
791
812
854
896
937
966
977
985
999
1016
1024
1025
1024
1025
1031
1034
1033
1030
1032
1033
1028
1024
1024
1029
1037
1041
1041
1041
1043
1044
1046
1050
1050
1049
1054
1057
1053
1051
1056
1060
1067
1068
1065
1063
1065
1066
1061
1056
1060
1067
1071
1068
1066
1065
1064
1062
1059
1057
1051
1045
1040
1033
1032
1036
1032
1031
1028
1021
1016
1022
1027
1026
1024
1019
1015
1015
1017
1024
1029
1030
1032
1030
1027
1026
1028
1030
1033
1029
1023
1021
1025
1030
1028
1031
1035
1035
1039
1041
1040
1045
1052
1058
1060
1053
1047
1046
1052
1062
1071
1069
1066
1065
1064
1063
1058
1057
1057
1052
1045
1040
1038
1034
1029
1028
1026
1025
1027
1034
1043
1045
1041
1041
1039
1038
1051
1085
1134
1183
1220
1228
1211
1147
1016
898
819
790
822
877
924
969
1004
1033
1054
1064
1070
1070
1069
1070
1074
1074
1074
1080
1081
1079
1080
1081
1080
1085
1089
1090
1090
1088
1090
1094
1096
1103
1107
1108
1112
1114
1114
1116
1116
1117
1121
1126
1126
1125
1126
1125
1125
1127
1124
1123
1121
1120
1119
1121
1128
1129
1119
1112
1109
1107
1101
1096
1092
1090
1087
1085
1081
1077
1077
1078
1077
1072
1065
1062
1068
1078
1081
1075
1068
1068
1071
1073
1077
1079
1080
1080
1081
1082
1079
1078
1079
1083
1083
1084
1089
1088
1087
1084
1082
1084
1090
1092
1092
1092
1095
1102
1108
1110
1109
1107
1111
1117
1120
1124
1123
1118
1118
1118
1113
1104
1102
1104
1100
1089
1082
1081
1081
1082
1080
1075
1075
1076
1077
1081
1079
1078
1082
1083
1082
1086
1111
1159
1220
1273
1297
1302
1267
1140
978
863
812
831
888
941
995
1041
1070
1086
1089
1096
1104
1107
1109
1109
1106
1106
1108
1114
1115
1111
1110
1114
1119
1123
1123
1119
1117
1120
1123
1127
1130
1131
1131
1135
1136
1137
1140
1145
1149
1149
1148
1148
1148
1150
1152
1152
1153
1153
1155
1154
1152
1153
1155
1153
1146
1140
1139
1139
1137
1131
1125
1119
1114
1111
1108
1103
1100
1101
1099
1095
1096
1095
1092
1094
1098
1098
1095
1091
1087
1093
1095
1096
1095
1093
1096
1098
1097
1094
1095
1099
1101
1100
1096
1094
1096
1097
1097
1098
1100
1095
1094
1096
1099
1101
1099
1096
1097
1096
1097
1098
1097
1096
1093
1090
1090
1093
1095
1097
1103
1108
1111
1111
1108
1106
1111
1119
1125
1128
1125
1123
1122
1116
1110
1108
1103
1099
1092
1083
1076
1073
1070
1070
1072
1072
1075
1076
1074
1069
1066
1070
1075
1079
1081
1091
1125
1177
1240
1291
1315
1319
1251
1080
913
809
790
837
897
952
1007
1046
1072
1086
1089
1091
1092
1092
1092
1092
1093
1093
1096
1098
1097
1093
1090
1095
1099
1099
1101
1105
1108
1110
1108
1107
1111
1115
1119
1119
1121
1121
1123
1126
1129
1128
1126
1128
1132
1132
1130
1129
1126
1128
1133
1133
1130
1131
1134
1133
1128
1124
1119
1115
1113
1109
1101
1097
1097
1094
1088
1084
1081
1078
1076
1075
1075
1072
1071
1072
1071
1072
1072
1072
1074
1075
1075
1073
1073
1073
1074
1072
1071
1073
1073
1073
1073
1073
1074
1076
1077
1076
1074
1072
1074
1074
1072
1073
1072
1068
1071
1071
1069
1065
1066
1068
1068
1068
1064
1062
1064
1062
1061
1059
1062
1062
1057
1052
1049
1050
1050
1049
1048
1049
1054
1056
1055
1055
1053
1052
1052
1051
1049
1045
1043
1044
1049
1049
1047
1047
1049
1056
1065
1066
1063
1059
1054
1050
1048
1051
1058
1058
1056
1051
1046
1047
1051
1051
1048
1042
1038
1037
1037
1032
1028
1027
1027
1032
1035
1033
1033
1036
1038
1036
1033
1033
1041
1068
1107
1150
1201
1238
1259
1246
1135
957
820
754
762
814
873
940
996
1028
1047
1050
1047
1050
1055
1054
1048
1048
1048
1054
1055
1054
1056
1057
1058
1059
1057
1057
1058
1060
1062
1063
1062
1063
1066
1067
1065
1066
1070
1072
1075
1078
1078
1078
1082
1081
1081
1078
1076
1081
1081
1079
1078
1082
1088
1088
1084
1080
1078
1076
1076
1074
1068
1062
1056
1057
1056
1050
1046
1045
1044
1041
1037
1036
1035
1032
1029
1031
1030
1030
1032
1031
1028
1028
1026
1024
1026
1029
1028
1026
1025
1022
1022
1022
1027
1029
1027
1030
1028
1026
1024
1024
1019
1019
1024
1025
1026
1024
1021
1018
1017
1017
1018
1015
1013
1011
1011
1009
1009
1009
1010
1011
1009
1010
1009
1007
1007
1008
1007
1005
1008
1013
1015
1015
1012
1011
1010
1008
1008
1009
1010
1013
1012
1009
1007
1008
1008
1006
1006
1006
1008
1007
1005
1004
1003
1001
1001
1005
1007
1006
1008
1015
1024
1027
1022
1015
1007
1005
1009
1012
1009
1008
1011
1011
1010
1011
1010
1007
1004
998
994
996
996
993
992
991
994
1000
1003
1001
1000
1002
1003
1002
1002
1003
1016
1047
1090
1136
1172
1190
1193
1137
985
837
747
728
768
825
881
937
978
1008
1021
1020
1016
1022
1028
1029
1028
1026
1026
1029
1031
1032
1031
1033
1036
1037
1035
1035
1037
1036
1040
1045
1045
1043
1044
1047
1046
1040
1040
1045
1050
1050
1052
1054
1057
1059
1058
1055
1053
1052
1054
1052
1048
1046
1050
1053
1052
1054
1053
1049
1046
1045
1042
1036
1032
1029
1024
1017
1011
1010
1009
1008
1007
1004
1005
1007
1007
1004
1002
1000
1001
1001
998
999
999
996
994
994
994
996
1001
1002
1002
1000
1000
1001
1002
1004
1004
1001
1001
1000
996
994
990
990
994
1001
1003
1001
1002
1004
1001
998
997
995
992
993
994
991
992
994
996
994
990
988
991
993
990
985
982
985
990
993
991
989
990
991
992
992
990
989
989
989
986
985
988
989
989
984
978
981
986
989
987
983
981
983
986
984
983
982
980
981
985
989
993
997
1000
995
987
980
980
983
987
992
990
988
988
990
990
988
988
985
980
977
975
974
973
974
975
975
974
973
976
978
975
977
980
983
988
1008
1044
1089
1135
1159
1164
1139
1029
873
760
709
722
773
827
885
937
972
992
1002
1003
1003
1000
1002
1009
1012
1009
1009
1011
1010
1008
1007
1008
1011
1013
1016
1017
1014
1012
1015
1018
1017
1016
1019
1021
1023
1023
1023
1021
1022
1024
1029
1030
1031
1032
1034
1035
1032
1030
1029
1029
1027
1030
1032
1035
1036
1035
1033
1028
1020
1014
1013
1012
1008
1007
1005
999
995
991
989
987
987
988
984
981
982
985
981
979
978
976
978
982
984
985
986
989
990
987
981
983
989
987
984
982
983
985
985
986
984
983
984
986
984
984
985
985
985
986
985
983
982
984
984
982
980
977
974
973
974
978
978
975
971
975
976
974
972
973
976
976
976
977
977
974
971
972
976
978
976
973
974
972
970
969
967
968
968
966
968
972
972
973
973
973
972
973
973
972
972
971
970
971
973
973
971
973
983
990
990
985
976
970
969
971
976
973
970
969
972
976
978
975
969
967
964
962
959
955
956
957
957
958
963
967
965
963
963
961
964
973
998
1037
1081
1122
1142
1147
1115
992
837
730
690
711
763
820
882
929
958
976
978
978
981
986
991
993
994
995
994
994
996
997
996
992
991
996
997
996
999
1000
1002
1007
1004
1004
1009
1010
1011
1011
1008
1008
1010
1013
1011
1012
1017
1019
1021
1020
1019
1018
1018
1017
1015
1014
1012
1010
1010
1011
1010
1007
1008
1005
1000
1000
991
986
983
975
970
974
977
976
973
972
969
967
965
965
967
966
965
969
971
968
962
958
960
965
967
966
968
966
968
969
966
964
965
967
968
966
964
970
971
969
967
965
966
966
964
964
963
964
963
963
963
962
960
964
965
962
962
964
964
966
965
962
959
957
956
957
959
956
958
962
962
960
957
955
957
957
955
954
954
955
955
955
953
956
957
955
953
951
952
954
956
954
949
946
951
952
951
951
949
948
948
947
948
954
961
971
973
969
964
955
952
947
951
958
958
958
958
961
963
961
955
952
950
947
947
944
944
947
946
945
947
949
948
947
951
950
951
959
986
1025
1072
1117
1134
1131
1096
981
833
729
685
700
750
803
861
911
946
968
975
976
975
977
980
980
981
980
979
980
981
981
980
979
980
983
986
987
987
988
989
991
993
992
996
998
999
1001
999
998
998
1004
1007
1006
1005
1007
1008
1010
1011
1011
1010
1012
1012
1009
1008
1011
1012
1011
1008
1003
1004
1004
1002
997
990
983
978
975
974
972
972
969
965
962
962
962
961
960
959
960
960
960
960
959
959
958
956
958
961
962
961
961
962
962
962
961
965
965
960
961
962
962
963
966
965
961
960
962
964
964
962
964
964
963
958
955
954
954
956
957
956
955
954
956
955
953
950
949
951
953
952
951
952
951
950
948
946
948
950
949
947
944
944
945
946
946
946
945
944
944
940
937
940
940
940
942
942
942
937
938
941
943
946
949
955
960
965
966
960
957
956
957
962
968
970
969
968
968
969
965
958
953
948
941
936
931
929
926
927
930
929
925
926
927
926
929
931
934
954
990
1034
1080
1107
1111
1096
1012
855
733
671
669
708
757
814
869
908
934
943
943
948
950
953
950
948
949
953
955
956
959
958
958
963
964
963
964
965
967
969
968
968
968
974
976
974
971
973
978
983
985
988
986
985
988
989
986
985
988
989
988
991
989
985
984
984
985
982
978
979
978
975
970
967
965
960
957
955
953
952
950
947
942
944
946
943
940
937
937
938
938
937
937
939
939
940
941
938
936
938
941
940
939
940
941
943
945
945
942
939
941
943
943
942
940
941
941
939
938
935
938
942
942
939
937
934
933
935
934
932
934
936
935
929
930
933
935
934
930
928
925
926
926
926
923
924
929
928
928
929
928
926
924
924
925
929
933
932
931
928
926
927
927
929
933
939
945
955
959
951
945
945
948
956
963
961
955
954
955
953
949
941
935
934
929
923
922
923
921
918
917
920
921
917
918
920
924
926
929
947
979
1022
1066
1095
1105
1083
980
824
713
656
660
704
757
816
868
903
927
939
942
941
940
943
943
941
943
946
948
952
953
950
948
950
952
953
954
956
958
962
966
966
966
964
964
967
972
972
971
971
972
979
982
978
979
981
984
983
980
981
983
983
982
980
978
979
978
978
977
975
974
973
967
964
961
957
953
949
944
939
938
938
939
936
931
931
931
928
927
932
937
936
933
930
929
929
929
933
933
929
931
932
932
932
931
931
931
932
931
929
928
930
934
933
931
931
930
929
926
924
924
926
930
930
927
923
921
920
919
920
919
916
916
917
920
917
918
915
912
909
909
913
914
912
910
910
912
912
910
910
911
908
906
907
907
907
909
912
916
919
922
927
929
931
927
925
927
935
938
933
928
926
932
933
928
918
909
908
907
901
892
890
896
898
898
899
896
894
894
897
896
893
901
931
970
1012
1050
1064
1062
1024
903
774
692
653
668
709
754
803
847
879
901
912
912
912
916
920
921
918
919
924
926
928
927
929
930
927
925
927
933
937
938
938
934
933
935
941
946
949
947
948
953
954
953
951
951
954
954
952
949
947
948
949
944
943
946
952
956
958
954
952
950
949
946
940
939
937
932
928
922
916
914
913
913
909
909
912
911
907
900
900
904
905
904
905
905
906
908
904
902
901
902
905
904
905
907
911
913
911
910
908
907
907
905
908
907
906
909
912
911
906
902
900
902
903
899
900
905
906
904
900
896
895
900
902
898
895
899
905
906
905
901
898
900
903
901
900
908
917
921
922
917
916
922
929
933
926
920
921
923
921
915
910
903
900
899
889
885
887
891
890
888
889
891
894
893
892
890
887
887
899
932
975
1021
1053
1059
1038
951
811
712
654
644
673
719
768
819
856
879
898
907
910
910
907
910
912
913
913
912
915
917
918
919
919
923
924
925
926
926
928
931
934
934
935
937
937
938
938
939
937
938
944
947
948
946
948
949
949
952
951
948
947
948
949
947
949
952
949
947
944
942
937
935
930
923
920
919
917
913
909
906
907
907
904
901
902
904
908
907
902
899
900
903
904
904
903
903
902
903
904
904
905
904
904
905
907
909
908
906
904
903
902
902
906
904
900
901
901
906
906
906
906
903
905
906
902
901
901
899
899
897
897
902
903
902
901
900
897
898
898
901
903
910
919
921
920
916
916
923
930
934
931
926
925
926
927
922
915
907
901
894
890
888
885
885
884
879
881
885
889
888
887
889
889
891
897
926
969
1014
1055
1071
1068
1016
874
733
645
620
648
697
750
808
849
876
897
908
911
910
910
912
913
913
915
914
914
914
918
919
918
917
920
925
926
925
926
926
930
934
937
938
941
944
944
945
944
945
950
953
953
950
950
953
952
951
949
948
949
949
949
952
954
953
951
946
940
938
936
932
928
920
914
913
912
906
904
902
898
897
898
899
897
896
897
893
890
890
894
897
897
898
896
894
894
893
895
895
896
896
894
896
896
897
896
897
899
897
897
898
899
899
896
894
895
897
899
898
897
894
893
892
891
887
887
891
894
893
888
889
891
889
886
884
884
887
886
883
880
884
891
897
899
901
901
897
899
906
911
914
908
904
908
909
908
903
898
891
883
878
873
869
866
866
866
865
864
864
863
864
867
871
870
869
878
907
947
993
1031
1045
1047
1004
864
721
630
604
634
681
731
791
838
870
887
889
890
892
898
901
897
893
893
897
897
896
896
897
902
906
903
901
901
904
907
908
909
909
909
911
912
913
916
917
919
921
925
928
928
926
927
927
923
926
928
928
926
925
926
928
929
928
926
924
921
917
913
908
904
900
897
893
890
888
887
887
886
882
878
879
878
876
876
874
875
877
879
878
875
880
884
881
879
878
879
879
878
880
878
880
880
881
883
881
881
884
884
885
883
881
878
878
881
879
876
877
877
878
878
878
879
879
877
874
874
874
876
876
874
872
871
873
876
876
873
870
874
875
872
866
870
878
884
889
892
895
890
885
888
892
899
902
897
892
891
893
890
886
881
873
868
862
860
857
855
853
856
857
853
851
851
855
859
858
857
862
883
919
961
1004
1031
1038
1013
902
745
638
589
602
650
700
754
804
838
863
871
872
872
873
875
876
876
879
879
882
884
886
889
888
888
887
888
888
890
892
892
891
891
893
897
899
897
900
907
909
910
910
908
909
909
913
914
915
916
915
916
915
910
907
906
908
908
909
908
905
902
899
897
893
887
884
884
880
872
868
870
869
867
865
868
868
863
860
861
861
863
866
864
862
859
859
866
867
864
864
863
866
869
866
863
864
869
869
863
861
863
866
868
867
867
867
867
869
867
864
865
865
866
864
861
860
861
861
862
858
856
858
857
857
858
860
861
864
865
861
858
856
858
859
856
853
853
856
856
853
854
859
867
874
878
876
872
867
873
882
886
885
879
879
879
876
873
873
867
858
851
848
847
844
840
837
838
840
844
846
843
843
843
842
842
845
873
914
960
1001
1023
1027
988
859
708
612
576
595
646
697
751
794
829
855
862
861
861
864
864
862
864
866
870
874
875
874
871
871
873
876
877
874
875
879
882
885
887
890
891
890
890
891
893
895
896
896
894
893
898
904
904
905
903
905
908
907
904
901
900
904
903
901
897
894
893
891
886
879
874
871
867
863
859
857
855
852
851
851
849
848
851
849
844
844
846
848
846
841
842
846
849
850
849
847
847
849
848
845
846
848
851
851
850
849
847
847
845
846
845
847
846
849
851
848
846
847
848
848
846
845
845
846
845
841
841
841
841
840
840
841
841
842
839
838
837
836
839
837
834
836
840
843
840
834
830
831
837
840
840
846
856
862
858
849
844
847
855
861
860
857
856
855
855
852
843
835
829
823
821
820
820
817
818
819
818
819
820
820
821
818
816
818
834
865
906
951
987
1002
995
924
771
640
569
557
593
644
698
753
792
818
831
835
837
839
841
841
845
844
845
847
844
843
844
842
845
848
848
852
856
853
854
856
859
863
859
855
859
863
868
870
869
867
868
872
873
870
870
870
869
871
870
869
872
872
873
870
869
871
871
869
867
862
859
858
853
848
843
839
836
836
835
834
831
827
829
828
825
823
822
823
822
821
819
818
819
818
821
823
824
823
822
823
822
823
828
828
826
825
827
829
827
826
824
823
825
828
827
825
823
825
828
825
824
822
820
822
821
817
817
816
820
822
821
818
814
814
815
812
811
812
812
815
814
810
811
812
812
811
808
807
809
812
814
819
823
825
823
820
821
829
840
843
840
834
832
833
830
825
818
810
805
802
799
792
788
789
793
793
791
792
794
794
793
793
794
795
810
841
886
932
955
951
911
802
674
600
561
567
603
644
690
736
766
789
803
807
808
807
805
810
813
815
814
813
815
816
817
821
825
824
823
825
829
830
826
826
826
824
828
833
833
834
836
836
840
842
842
845
847
848
845
843
842
846
849
848
847
848
852
853
851
848
845
841
842
841
836
833
832
826
821
816
810
807
804
803
804
806
808
802
799
798
799
801
803
803
801
801
803
805
804
800
800
803
804
804
804
804
804
804
805
803
805
807
808
809
808
806
807
809
809
810
806
803
805
806
802
801
802
803
803
802
800
801
804
804
801
799
797
796
797
798
795
795
795
798
797
796
798
804
811
819
822
818
810
811
815
820
825
821
818
818
818
813
810
809
803
797
790
788
787
783
783
783
784
787
788
784
780
785
785
784
788
797
829
873
919
952
961
951
886
745
618
540
522
554
606
659
711
752
781
798
804
805
802
801
806
809
808
804
803
811
813
814
813
813
814
814
814
815
820
827
827
826
824
824
824
829
833
833
835
838
842
842
841
843
845
844
845
844
844
846
847
845
843
842
843
844
843
840
842
841
837
834
828
824
824
823
817
812
807
805
805
803
799
794
793
795
792
793
794
793
795
797
797
796
796
794
796
798
797
794
792
797
800
796
797
802
802
803
807
808
808
806
803
803
804
803
803
801
801
803
805
803
804
804
799
797
800
804
804
800
798
798
802
803
797
795
801
804
803
802
799
797
796
795
793
792
795
801
807
815
821
821
815
810
814
826
837
837
831
827
824
823
819
815
807
799
796
794
788
786
787
785
785
786
787
786
786
787
789
787
784
790
813
850
893
938
965
975
953
846
686
571
519
530
579
632
688
740
774
795
803
803
806
811
813
812
812
814
817
816
815
811
809
812
816
819
823
828
829
831
831
827
826
829
833
832
834
837
840
841
840
842
844
847
850
849
846
847
849
849
848
847
845
847
850
850
846
845
845
840
833
828
825
821
819
815
810
803
800
801
798
794
792
793
791
786
783
783
784
783
782
783
780
777
777
782
782
779
781
784
786
786
786
785
787
789
790
789
786
785
787
789
791
790
790
791
791
789
785
782
785
789
791
793
794
796
795
792
788
787
787
784
782
778
776
779
782
784
784
784
784
784
785
783
782
781
781
781
780
787
796
806
812
808
801
801
807
811
812
805
800
799
800
799
798
793
790
785
777
771
770
769
769
767
764
765
769
772
773
772
772
772
775
787
817
859
904
939
953
948
878
720
585
510
496
532
587
646
703
744
769
785
790
790
790
789
787
788
790
790
788
787
792
799
800
797
798
801
802
803
800
800
802
806
808
810
810
811
816
818
818
817
818
822
823
824
824
826
827
826
825
822
821
822
825
825
825
828
828
828
824
818
812
810
810
809
803
797
793
790
785
779
776
774
776
777
775
777
780
779
778
776
777
776
775
774
772
768
771
778
779
779
778
780
782
781
778
775
775
781
785
784
783
783
783
785
786
784
785
785
784
780
777
777
779
783
782
777
778
779
781
780
776
774
775
777
777
778
778
778
781
783
782
777
777
776
772
772
769
772
775
777
779
780
786
794
799
797
791
788
793
799
807
806
801
799
799
801
795
787
779
775
773
768
765
761
760
759
759
759
758
758
758
757
759
761
765
769
787
823
865
910
938
946
926
827
668
551
499
504
550
606
662
714
749
770
779
780
781
782
782
782
783
787
789
791
792
795
794
792
790
793
800
801
802
803
805
808
808
806
806
810
816
817
817
819
821
823
824
825
824
827
831
832
828
826
829
830
831
829
826
825
826
825
823
821
819
817
815
810
805
801
801
800
796
794
793
788
786
784
782
777
776
778
780
783
782
781
782
781
780
779
780
782
784
782
779
779
781
784
784
782
782
782
784
787
786
785
787
787
787
787
788
789
789
788
785
781
783
788
787
784
783
784
785
784
782
779
779
782
780
777
775
778
779
776
775
772
773
779
780
777
772
770
772
775
777
775
776
779
781
786
792
798
804
805
796
789
788
794
806
809
805
799
798
800
795
790
787
782
778
775
771
766
763
763
765
769
768
768
768
767
764
761
762
767
786
818
859
906
937
946
932
842
682
564
507
510
549
598
656
713
748
772
784
789
790
788
786
785
788
791
793
792
791
793
795
796
795
792
793
798
800
805
808
808
808
812
814
811
811
811
817
823
823
825
826
829
828
826
826
830
832
830
828
827
832
834
832
831
829
830
830
827
821
815
816
817
809
803
797
793
792
793
791
787
783
780
781
783
782
780
778
779
780
778
779
781
782
777
774
779
783
782
781
780
777
774
776
781
783
781
781
781
780
779
777
780
783
781
781
780
778
776
778
780
778
779
779
777
774
772
774
778
779
776
771
768
773
776
775
771
768
768
771
771
769
765
763
766
768
767
763
760
762
766
771
772
774
782
787
790
786
781
780
783
790
797
798
794
790
789
788
785
782
777
771
762
756
755
755
753
752
752
751
753
752
752
753
755
758
758
762
781
814
858
901
924
927
904
799
652
551
502
510
554
601
656
704
736
760
770
772
768
769
774
776
778
777
777
778
779
778
778
779
781
783
782
780
782
784
787
792
794
793
794
798
798
797
800
803
805
804
802
803
806
810
811
807
802
805
807
806
804
800
799
803
806
806
799
796
799
798
791
783
779
779
779
777
769
765
766
763
758
754
754
755
755
752
748
748
749
751
754
756
753
749
751
754
752
750
749
750
746
745
748
750
753
756
756
752
749
751
753
755
752
750
749
749
748
746
746
748
747
747
746
744
742
744
746
744
739
738
740
742
740
736
736
738
739
738
737
738
736
733
732
731
732
738
744
750
749
749
746
744
750
756
761
757
752
752
752
754
753
750
740
731
728
724
721
722
721
717
718
723
724
719
719
723
726
725
724
726
744
779
819
863
882
879
849
750
623
542
494
494
529
575
621
665
694
716
730
734
737
743
748
749
745
743
746
749
748
747
748
754
757
755
753
753
757
761
760
759
759
763
768
767
765
766
770
773
772
773
775
775
776
778
778
776
777
778
777
776
776
781
782
781
776
773
772
772
772
768
762
756
751
751
751
746
742
741
741
740
739
737
735
734
729
729
730
735
740
739
738
735
732
732
733
733
734
734
733
733
738
739
738
738
738
738
736
738
742
744
745
746
747
748
750
749
748
747
743
743
744
744
743
745
750
748
744
743
744
746
746
745
742
742
745
744
742
739
741
744
743
738
738
743
746
746
743
747
758
768
769
761
757
765
775
783
781
773
770
772
769
764
759
751
747
743
737
735
736
736
741
744
744
741
740
742
745
744
743
746
754
779
816
857
899
922
925
893
777
627
528
486
501
549
600
654
702
732
753
762
763
769
769
768
768
771
772
771
773
773
776
778
781
780
781
784
786
786
784
783
789
795
799
799
798
800
803
806
808
806
804
806
811
813
812
810
810
814
814
812
814
817
816
817
818
819
820
819
817
811
804
801
799
795
789
783
780
782
781
775
773
774
776
774
771
767
768
770
768
768
769
770
769
768
768
769
770
772
774
774
770
769
771
774
777
773
768
769
772
772
772
772
774
777
777
774
773
772
772
773
776
775
775
773
770
771
774
775
776
773
771
768
767
768
770
769
764
765
768
770
770
768
771
770
769
768
767
767
771
776
785
790
792
790
786
785
788
795
800
796
790
790
791
789
789
784
775
771
768
765
762
760
757
756
759
761
762
758
756
757
760
761
763
772
799
840
887
927
947
951
917
788
632
529
491
512
558
610
670
718
751
771
777
776
776
777
777
779
779
779
781
780
777
782
787
789
792
792
790
789
793
797
800
799
802
805
805
804
802
804
807
809
810
809
814
817
821
823
819
816
820
822
820
820
820
822
824
825
823
818
816
816
813
808
800
798
795
791
786
781
779
782
784
780
776
771
768
770
769
765
764
767
769
767
763
761
760
761
762
762
764
764
765
765
764
764
765
768
767
765
765
764
763
759
763
767
771
774
770
765
768
770
769
766
764
763
762
760
759
762
762
762
764
763
759
759
758
761
760
757
753
754
752
753
755
754
754
751
752
753
752
753
753
751
751
754
754
758
765
775
780
775
768
769
773
779
784
785
783
781
781
780
777
771
764
763
759
752
746
746
744
743
742
743
740
741
745
745
745
749
751
752
765
798
844
891
923
935
924
839
681
553
482
479
525
578
634
689
730
756
765
765
762
763
767
768
767
765
767
772
774
774
776
780
783
782
780
782
785
787
790
789
789
790
794
799
798
797
799
803
807
807
807
808
809
811
813
813
815
817
817
814
810
810
813
814
815
815
810
807
807
807
803
795
791
790
787
780
773
770
768
767
767
766
766
767
769
767
763
759
759
763
762
759
755
755
759
761
761
760
761
765
763
759
758
761
765
764
760
759
759
758
760
761
758
757
759
761
761
757
756
758
757
756
754
753
752
754
755
753
751
749
751
752
750
748
749
750
746
744
745
747
746
744
743
742
742
744
744
739
737
742
745
744
744
739
740
744
751
757
758
761
760
756
757
758
762
769
768
764
759
762
767
764
758
752
745
740
735
732
729
725
723
724
727
726
724
723
726
725
726
727
731
744
775
815
858
895
914
915
864
719
577
489
464
491
540
593
651
694
721
734
739
744
748
748
745
741
739
745
748
749
749
749
750
751
753
752
751
753
756
755
755
755
754
753
754
755
756
759
764
767
764
766
767
773
775
775
776
776
777
775
772
770
773
776
775
774
773
772
771
765
763
765
763
759
755
751
745
740
739
738
734
729
727
729
727
725
723
725
728
726
720
718
723
723
721
720
721
725
727
729
727
724
725
724
725
723
723
727
727
727
727
727
725
722
724
726
724
722
720
723
725
723
721
720
721
721
718
718
718
718
717
719
720
719
719
718
717
716
715
716
719
717
713
713
714
717
716
712
712
714
715
713
710
710
709
710
711
712
712
713
720
725
725
728
732
734
730
728
728
736
743
740
737
736
737
737
732
726
716
711
706
700
697
693
691
692
695
692
690
689
689
691
692
691
692
696
718
754
798
841
864
871
849
741
586
477
427
437
482
533
589
638
670
694
702
706
707
707
708
708
710
712
712
710
709
713
716
717
719
718
718
719
720
720
721
724
727
729
731
730
730
728
731
735
735
738
740
740
740
739
739
742
741
741
746
744
743
744
741
740
742
744
744
740
731
725
725
724
721
715
708
708
710
706
701
697
697
696
695
692
689
688
690
693
692
691
689
686
686
687
685
683
685
690
688
686
684
687
690
690
688
686
689
693
693
691
687
687
690
688
686
687
690
690
689
689
686
685
686
688
690
689
689
688
688
687
686
686
684
685
686
684
683
683
684
685
684
683
685
682
681
679
678
680
684
684
681
679
680
682
684
683
681
682
688
694
698
696
691
689
690
695
705
712
710
707
704
705
703
697
693
687
681
676
672
669
666
665
664
665
667
669
669
669
670
673
676
678
692
724
764
804
830
834
816
739
606
508
448
436
464
509
555
602
637
659
677
683
683
683
688
691
687
685
688
690
691
690
688
687
689
690
691
694
698
699
701
699
698
699
700
705
707
708
708
708
709
712
717
720
721
722
723
721
719
721
721
719
717
718
720
721
724
724
723
721
717
714
710
705
702
702
700
697
696
691
689
687
681
678
678
679
680
678
676
671
669
673
674
674
675
675
677
678
677
677
678
677
678
679
676
675
674
674
674
673
675
678
677
678
681
680
679
683
679
672
674
679
679
676
676
674
672
671
670
672
673
675
674
671
669
668
669
671
673
672
665
663
667
668
666
666
666
667
667
666
664
660
659
664
667
670
672
676
685
689
684
681
681
683
689
697
695
690
689
690
692
687
683
680
673
665
656
655
655
653
656
657
655
657
659
660
656
656
657
659
665
682
717
760
805
833
838
816
722
574
463
402
400
443
496
547
597
634
661
674
677
677
678
680
684
687
687
686
687
686
685
686
690
694
696
695
696
698
699
698
699
702
703
705
708
712
710
709
713
716
715
714
714
718
721
722
723
724
721
720
724
724
720
720
722
722
720
719
716
716
716
711
705
699
694
692
688
685
680
678
677
676
673
668
668
672
673
672
668
666
667
669
670
668
668
670
672
671
671
671
670
671
672
669
669
673
675
674
671
668
671
678
678
676
674
673
674
673
672
672
674
677
676
673
675
679
679
677
674
671
671
673
673
670
671
671
672
676
675
672
672
672
670
669
670
670
673
675
672
668
665
667
674
673
671
677
685
690
692
693
691
689
690
694
699
701
697
696
696
697
698
693
687
685
679
669
662
660
660
657
659
661
660
660
659
658
656
657
662
664
674
703
744
789
829
843
842
809
687
533
433
393
413
465
519
579
626
659
677
682
683
685
686
689
692
692
688
690
693
694
692
694
696
697
699
698
696
697
702
706
706
706
706
708
711
713
713
716
720
724
723
721
721
723
725
725
725
728
728
728
725
724
725
728
728
726
726
726
723
721
720
718
712
707
701
698
694
690
685
687
689
687
685
683
682
682
680
677
674
674
679
681
681
676
678
684
683
681
681
684
686
688
687
685
685
690
694
693
690
690
689
688
688
686
688
688
689
686
685
684
688
693
693
689
687
686
688
687
685
682
684
686
684
681
681
683
685
683
682
682
682
682
682
683
680
679
680
679
679
676
675
679
684
685
685
688
695
701
701
699
696
694
698
706
711
709
705
705
705
704
701
697
691
686
680
673
666
665
668
671
667
667
672
673
673
672
671
671
671
679
700
737
782
828
854
858
839
738
578
458
400
408
457
513
570
620
654
677
688
691
689
689
691
692
692
697
700
701
699
699
699
700
703
706
708
707
707
711
714
715
715
714
716
718
722
725
723
723
722
724
728
730
731
733
738
738
736
737
738
739
735
731
732
737
740
737
736
736
735
731
725
720
716
714
712
710
705
700
698
701
703
699
696
696
694
691
689
687
689
693
694
694
692
693
694
694
692
690
689
688
688
691
688
687
689
690
690
691
692
692
694
692
691
693
693
694
694
692
691
690
691
690
688
686
686
689
692
692
690
690
687
686
688
687
684
682
684
684
682
683
684
683
681
680
679
677
678
677
674
672
672
673
676
677
683
691
696
697
692
687
690
695
703
707
704
698
699
699
697
691
687
682
675
672
670
669
669
669
667
663
663
664
667
670
669
669
670
672
677
696
735
780
824
846
848
823
715
561
451
400
411
462
515
571
621
657
682
692
691
691
693
694
695
696
694
692
694
700
700
701
702
704
707
706
705
706
709
711
715
715
712
712
717
720
717
718
724
726
725
726
727
728
729
728
731
729
728
729
728
728
729
731
729
730
733
730
725
723
723
719
714
709
705
702
699
696
691
689
689
688
684
678
682
683
683
684
680
681
685
685
683
681
680
684
686
682
680
682
681
677
675
679
680
678
678
678
680
680
680
682
681
677
675
679
682
678
673
673
677
677
677
675
672
673
674
674
672
671
670
669
670
668
670
671
669
668
669
667
666
667
668
667
666
671
672
670
669
671
672
671
668
665
668
677
684
690
688
679
675
681
689
695
698
690
687
687
685
682
682
679
672
668
661
653
649
650
651
649
647
648
649
650
648
646
644
644
651
664
691
728
775
814
826
823
767
618
479
400
383
416
469
520
576
619
649
666
672
672
671
671
673
673
670
670
672
674
675
676
678
675
673
676
684
685
682
680
682
685
686
687
689
690
691
692
694
694
695
699
700
700
699
705
705
701
703
703
702
702
701
703
700
698
701
702
701
696
693
693
691
684
678
676
672
668
666
663
662
660
661
658
654
655
656
655
653
651
651
651
649
647
649
651
656
659
657
655
652
650
653
658
660
657
654
655
656
653
653
656
653
654
654
652
651
653
655
657
656
655
651
651
651
650
648
646
646
644
642
643
644
647
646
641
637
639
640
637
638
638
638
636
633
631
633
638
640
640
644
649
654
653
646
647
655
662
667
665
660
656
657
657
653
649
642
636
632
627
625
624
621
622
630
632
626
621
620
625
629
628
626
629
646
679
718
758
785
787
762
667
534
453
407
401
431
471
512
559
593
614
628
637
640
644
646
646
645
647
649
647
645
645
647
650
650
650
650
652
654
655
655
655
657
659
659
663
665
669
670
667
666
666
670
673
672
674
678
680
679
682
680
675
676
679
683
681
677
676
675
674
669
666
664
659
654
651
648
644
640
640
641
636
632
633
634
629
626
624
624
627
627
629
630
629
632
632
632
631
631
632
630
630
629
630
631
633
633
631
631
634
637
635
632
629
624
625
631
633
631
629
631
631
630
627
627
628
625
623
623
626
628
628
625
623
625
624
623
624
622
623
624
623
621
617
621
629
637
642
643
645
645
645
649
651
652
649
649
650
652
650
644
640
635
629
625
622
622
618
614
614
614
615
615
615
616
616
617
623
625
628
645
679
720
764
791
797
778
684
539
434
374
373
414
463
510
562
599
624
635
636
637
640
643
644
643
642
639
641
645
645
649
652
652
650
653
654
654
658
657
654
657
662
665
665
663
662
667
668
671
676
673
675
679
677
675
675
678
677
675
678
677
674
674
678
679
679
679
677
671
666
662
661
660
657
655
652
649
645
644
644
643
641
639
640
639
637
634
633
635
636
635
636
637
638
641
638
632
635
634
634
639
638
639
639
640
642
642
646
647
648
649
649
648
647
647
648
645
642
644
646
644
642
641
643
645
642
640
641
642
644
646
646
643
641
645
648
647
641
639
645
647
644
641
642
646
654
658
659
666
666
661
663
669
676
680
673
666
663
662
661
662
658
649
643
639
637
631
626
624
624
628
631
629
628
630
633
633
631
630
639
667
711
759
801
824
829
798
674
510
403
361
380
434
487
545
591
624
644
648
647
644
648
652
651
654
657
659
658
658
659
660
663
662
661
664
668
669
669
668
668
673
680
680
677
676
680
687
691
691
690
691
692
690
688
689
694
696
696
694
692
692
692
689
686
689
693
692
691
687
682
676
671
666
664
662
657
657
658
654
651
647
644
644
644
641
636
637
637
637
634
636
640
641
640
637
634
637
638
639
641
639
636
638
643
644
640
638
639
641
640
637
640
644
644
643
646
648
647
644
641
642
643
643
645
642
637
633
633
636
634
632
636
639
637
638
639
641
642
641
641
640
635
635
635
635
633
636
640
643
648
653
657
660
652
646
646
653
666
669
663
660
657
655
655
656
649
641
635
635
631
624
621
620
620
623
625
626
624
623
621
622
624
624
634
665
706
751
790
811
813
767
626
474
381
355
382
431
487
545
593
624
638
643
646
647
647
645
645
644
648
651
649
647
647
645
647
652
657
657
657
660
663
664
663
668
672
671
671
672
675
678
676
676
680
679
680
684
686
688
688
687
687
684
681
682
685
688
687
686
686
685
683
678
675
671
667
663
659
653
652
651
650
645
640
637
635
636
639
642
641
642
643
643
638
635
638
640
639
640
638
638
638
640
640
641
644
643
643
645
643
641
640
643
647
647
643
640
642
641
639
641
647
647
642
638
638
639
641
642
642
640
640
638
635
635
635
632
632
634
636
636
635
637
637
632
630
631
633
634
633
633
634
634
632
633
634
637
647
656
658
652
647
648
651
658
663
662
659
659
661
659
653
649
646
639
632
625
621
620
621
621
621
620
622
624
624
625
627
629
629
630
644
676
718
763
795
806
805
749
602
461
380
365
398
450
503
557
596
622
635
640
643
642
644
645
646
650
650
651
653
652
655
653
655
659
661
659
658
657
660
666
666
665
667
668
668
670
672
673
674
676
677
678
677
675
677
678
679
678
679
684
684
681
679
682
684
682
679
677
677
674
671
663
658
658
655
651
647
640
638
639
637
636
636
634
633
635
631
624
622
629
633
630
628
628
630
634
632
629
628
628
629
627
628
629
629
629
628
631
631
633
636
636
633
629
626
631
635
631
630
629
628
626
623
622
622
621
621
621
619
619
620
619
618
615
613
612
616
618
617
616
617
620
616
610
609
615
616
614
613
611
613
616
622
629
628
625
623
625
626
630
637
639
636
630
630
632
630
622
614
609
604
600
598
595
593
594
596
598
598
595
594
597
599
597
594
596
610
644
685
723
748
756
741
661
531
438
378
364
392
436
479
524
555
581
602
609
610
610
616
617
614
615
616
619
622
622
623
625
629
628
621
619
619
621
624
628
627
628
629
628
626
623
624
627
628
630
626
623
630
635
637
639
642
643
642
638
635
635
638
640
642
641
644
644
641
635
629
626
624
623
623
620
616
612
609
609
608
606
605
606
605
605
604
602
602
600
598
595
596
600
603
602
599
600
601
599
599
597
596
598
598
599
603
606
605
601
597
595
597
599
601
601
600
598
596
594
595
596
595
596
597
597
598
596
596
597
597
593
591
594
596
596
597
597
596
595
592
591
591
592
597
607
613
613
610
607
612
620
626
623
617
615
616
615
613
609
605
602
598
592
585
582
582
585
587
588
588
587
587
586
586
588
587
586
595
625
665
707
743
754
751
706
581
456
374
336
353
398
443
492
536
568
593
602
601
603
604
605
608
608
612
614
616
616
617
617
617
619
618
619
622
622
622
625
630
630
631
635
634
635
638
639
643
646
647
648
650
654
654
653
652
651
650
650
654
653
654
657
658
655
653
653
651
648
640
633
629
625
623
620
618
616
614
614
611
608
609
607
607
604
602
604
608
609
610
608
610
611
613
614
612
607
606
611
610
608
607
609
612
612
609
608
612
614
617
618
618
617
616
615
615
614
612
612
614
613
610
613
616
616
612
611
613
613
613
610
607
605
607
609
606
603
605
608
610
607
605
604
605
607
611
615
617
621
628
630
628
626
631
636
638
634
629
628
629
625
619
614
608
606
604
600
593
589
593
596
594
593
592
593
598
597
596
596
598
607
634
677
726
771
791
793
764
640
481
370
327
348
400
454
513
563
595
610
615
619
621
622
624
624
624
625
624
624
626
627
627
630
631
631
633
634
634
635
636
640
642
642
643
643
645
647
649
649
649
652
656
661
660
656
660
661
659
659
659
659
665
667
662
659
659
660
663
660
654
649
647
645
641
638
635
632
629
625
622
621
619
616
611
609
611
612
614
612
608
609
611
614
615
616
614
616
616
614
615
615
614
612
614
616
614
614
614
613
613
613
614
617
619
619
616
617
619
620
617
610
611
613
614
614
613
611
609
610
613
613
612
612
612
614
614
606
607
613
611
610
609
609
610
610
613
620
628
634
636
627
623
629
638
646
642
633
628
629
629
623
617
614
611
609
605
600
594
591
592
593
598
598
598
598
596
596
595
596
600
611
639
679
723
764
786
792
750
610
455
352
319
346
402
460
520
562
589
606
612
616
616
615
618
619
619
613
612
619
626
628
629
630
630
631
633
634
633
632
633
634
636
639
639
640
641
644
647
648
649
649
650
649
647
648
648
650
653
653
653
653
656
655
652
653
653
652
651
647
641
638
636
633
631
626
623
621
618
616
614
614
611
607
605
602
605
610
607
601
596
601
604
606
608
605
604
605
607
609
609
608
607
606
605
606
607
608
611
610
608
607
607
609
608
604
601
602
605
603
601
601
602
603
601
600
600
604
610
609
606
602
602
601
599
600
600
599
599
601
601
598
598
595
594
596
598
599
599
599
601
607
611
615
619
611
606
611
619
627
628
620
616
615
612
609
605
595
594
594
590
587
585
583
583
581
579
578
580
585
586
583
580
580
586
596
622
661
706
748
769
770
723
584
434
336
301
328
382
437
497
545
575
589
595
599
598
600
602
602
600
600
603
604
600
598
602
606
608
606
606
610
609
608
610
612
614
616
619
622
625
627
627
626
627
630
631
630
631
633
631
629
629
629
628
630
633
634
634
632
631
632
629
623
620
619
616
610
605
600
596
593
593
590
587
587
590
589
587
583
580
580
582
583
580
582
586
586
584
582
581
579
579
581
581
582
584
584
584
585
583
583
582
579
579
581
583
583
580
580
580
579
579
576
575
575
578
579
576
572
569
569
572
573
572
571
570
571
572
569
568
569
570
569
568
565
563
561
563
564
563
562
563
566
563
563
561
558
565
577
586
587
581
576
574
578
586
595
596
591
587
586
585
582
576
569
561
557
555
552
547
543
544
545
547
548
548
548
548
549
551
549
551
564
593
632
676
710
724
725
672
528
388
303
281
310
359
409
468
512
539
553
555
559
561
562
562
561
564
566
565
562
562
567
570
569
567
565
569
571
573
575
572
570
571
576
580
579
578
582
587
587
584
585
588
589
589
587
585
583
583
581
582
585
585
588
587
588
587
586
587
585
583
578
572
563
555
550
545
543
542
543
542
540
540
538
535
535
532
532
533
534
533
531
532
534
533
531
529
528
529
530
526
526
528
528
531
533
529
529
532
534
533
532
531
531
528
527
527
525
522
526
527
525
524
523
522
523
526
524
518
518
521
520
518
516
516
516
513
511
514
515
513
510
511
511
509
508
510
510
510
513
519
521
522
528
528
523
520
521
525
534
536
533
527
523
527
528
523
516
508
502
499
497
490
489
494
495
493
490
489
491
491
488
486
488
488
497
520
554
590
625
649
650
617
518
391
309
267
265
295
339
387
430
458
483
498
500
502
506
509
510
511
510
508
506
506
511
515
517
518
516
514
515
517
519
517
518
520
522
526
527
523
525
531
534
532
532
535
540
543
542
539
539
540
539
540
538
536
539
543
544
544
543
543
544
542
538
532
525
525
522
518
516
513
511
508
503
499
498
497
492
490
494
496
496
491
489
489
489
494
497
495
492
492
494
493
492
495
498
500
499
497
495
494
495
496
495
496
498
498
498
495
491
490
491
494
494
490
492
493
495
493
490
488
491
494
494
491
491
492
490
484
485
487
488
489
489
488
487
485
486
486
486
485
488
489
492
502
510
513
509
506
506
510
518
520
515
513
516
515
511
508
503
496
490
485
482
478
475
477
477
479
480
477
476
480
480
480
482
482
489
512
549
591
633
659
665
643
541
383
274
220
227
271
318
375
428
462
486
496
499
504
507
507
504
503
504
506
508
509
507
508
512
514
518
518
519
522
522
522
522
524
529
529
530
531
529
533
536
536
536
539
545
545
544
541
541
542
541
539
536
538
540
542
543
539
536
539
540
539
533
529
527
522
515
513
509
505
504
503
502
501
500
499
496
494
492
492
493
492
490
491
495
498
495
493
490
489
492
495
498
496
495
492
495
500
498
498
497
496
497
497
496
501
506
503
498
499
503
503
500
500
499
500
504
501
495
491
491
493
496
497
495
496
498
495
491
492
500
503
500
497
493
492
493
494
492
488
487
495
502
508
512
510
508
507
509
512
517
521
520
516
515
513
509
508
503
494
488
487
487
484
484
479
473
477
483
483
484
487
486
486
485
487
498
529
571
618
656
673
672
620
476
328
236
210
240
293
347
408
454
485
500
503
504
504
505
506
508
509
509
513
513
512
511
511
512
515
518
519
520
518
518
523
525
528
534
534
533
533
534
537
540
541
540
539
538
540
542
543
543
543
539
538
538
541
543
543
540
539
541
540
538
535
530
525
521
519
516
512
509
506
506
504
503
499
498
498
498
495
492
491
491
494
497
493
492
494
494
493
489
491
495
497
494
494
494
495
498
499
496
497
501
502
501
502
504
505
505
503
502
499
499
501
502
501
498
497
499
499
495
493
493
492
490
489
490
494
495
494
492
488
487
486
486
485
483
482
480
482
486
484
482
482
486
489
493
498
505
513
513
505
502
503
510
521
523
515
508
507
513
512
503
499
495
489
486
481
477
479
478
479
477
476
476
476
475
473
473
475
477
480
497
534
580
628
659
668
657
575
419
289
218
213
256
313
369
420
456
482
494
497
500
503
503
505
505
500
500
504
505
506
508
507
508
511
513
513
514
518
518
520
523
524
523
523
526
527
529
534
538
542
544
543
542
543
546
544
542
543
542
543
545
545
546
547
549
549
544
542
546
544
538
533
527
521
519
518
513
507
507
507
508
506
500
498
497
497
498
496
494
493
495
495
491
491
492
495
497
497
498
499
499
494
489
491
497
505
506
504
503
503
507
505
503
501
501
502
502
501
499
498
496
498
499
495
496
498
498
500
498
499
499
497
494
490
492
493
495
496
495
494
494
499
503
502
499
497
497
495
495
496
497
501
507
509
514
519
519
517
516
520
527
527
522
519
518
520
517
511
504
498
493
488
487
486
481
482
484
484
481
480
480
478
480
481
476
475
487
515
553
597
638
657
657
610
476
322
226
198
226
277
329
386
433
469
490
495
495
495
499
503
503
505
507
507
506
506
508
510
512
514
515
516
515
514
515
518
523
524
525
528
530
531
535
538
536
533
534
537
540
542
540
540
540
541
543
542
539
541
547
548
547
546
544
543
540
535
531
528
525
522
517
512
513
512
509
505
499
497
496
495
495
493
491
492
497
497
494
493
498
499
497
493
492
494
497
496
498
499
499
500
500
497
494
495
500
500
500
502
503
502
501
500
497
499
500
497
497
494
494
498
498
494
491
494
497
499
501
498
494
493
495
495
494
493
494
493
490
486
480
484
486
485
485
486
490
493
494
496
501
507
509
505
500
497
501
508
510
505
503
506
509
509
502
491
482
477
474
469
462
461
458
456
455
453
450
453
456
458
455
451
452
463
482
518
559
602
628
633
606
495
342
240
191
202
248
300
359
408
444
465
473
475
476
473
473
477
482
483
477
475
478
479
483
484
482
483
486
488
487
485
485
487
492
493
495
493
493
496
500
504
508
510
510
512
511
507
508
510
512
510
507
507
509
511
509
508
509
509
511
510
503
498
498
493
490
489
484
480
478
475
470
468
468
466
464
463
462
462
459
455
456
457
457
460
462
462
460
458
459
460
463
462
460
460
458
458
461
464
466
466
466
466
463
460
461
461
460
456
456
457
456
455
457
459
460
460
456
454
455
456
453
450
450
451
450
447
447
445
447
450
448
448
447
446
448
450
454
461
467
468
463
458
461
469
475
471
463
462
468
471
468
462
454
447
443
439
433
432
436
434
435
435
432
432
434
434
432
433
432
433
442
465
504
549
586
596
584
526
401
298
235
206
222
262
306
353
391
416
437
446
450
454
453
453
453
453
457
459
455
454
454
459
460
458
459
460
465
466
465
468
471
473
470
471
476
479
483
487
486
480
481
487
488
488
489
491
491
491
490
489
488
488
490
490
489
491
493
494
492
485
481
477
475
471
468
465
461
458
452
446
444
447
449
446
444
442
443
444
441
441
442
443
444
442
442
442
442
441
440
439
438
440
442
445
447
446
444
444
446
443
442
445
446
446
447
444
440
440
439
440
440
439
441
442
440
440
439
438
439
439
437
435
435
437
437
438
436
433
431
432
432
435
445
453
457
456
451
451
459
467
472
467
459
456
460
458
454
452
446
440
435
428
424
422
424
424
423
427
429
426
423
422
422
424
426
430
439
465
505
555
596
609
607
554
413
275
191
166
197
247
298
355
398
428
445
451
449
449
450
451
452
450
453
455
456
461
462
462
463
463
466
466
464
466
471
473
472
472
471
472
477
479
479
479
480
487
493
492
488
489
493
494
489
488
492
494
496
497
495
492
490
491
489
487
486
485
485
478
472
466
463
465
464
460
457
453
453
451
450
446
445
449
448
446
443
445
453
455
453
449
450
454
456
456
455
455
456
454
452
452
455
458
459
456
453
452
452
452
451
449
450
452
455
454
449
450
453
454
451
448
449
449
450
447
441
439
447
452
452
450
447
448
450
447
448
449
452
459
465
468
466
463
465
469
473
478
480
477
473
471
471
468
465
462
453
447
445
443
440
437
440
441
442
444
445
443
443
442
439
437
442
453
483
524
572
615
634
639
603
470
310
205
171
198
250
303
358
405
439
458
465
463
462
463
467
467
466
465
463
464
466
467
467
466
469
471
471
471
472
477
478
476
475
475
484
492
494
493
495
499
499
499
496
497
502
506
506
508
510
511
509
507
504
506
511
509
505
504
504
501
499
494
490
487
480
477
476
471
467
466
466
461
458
458
460
462
459
454
456
460
464
463
461
457
457
464
467
464
463
461
462
465
466
463
464
465
465
463
460
460
463
468
468
465
465
463
461
462
461
461
462
466
465
462
462
462
460
458
458
456
456
458
457
457
455
455
458
458
458
455
455
456
456
457
461
468
473
476
474
463
468
478
486
492
488
482
479
481
480
473
468
462
459
456
452
450
448
447
446
444
444
444
444
444
444
445
444
444
448
464
494
537
585
621
637
638
580
425
279
194
176
213
267
321
376
417
449
463
465
467
467
469
473
473
473
474
475
476
475
472
474
476
481
485
485
485
486
486
487
489
489
491
494
495
496
499
499
502
504
506
507
505
505
507
507
507
505
505
507
508
506
505
508
508
505
506
505
504
503
501
496
491
486
483
482
476
471
469
470
470
467
464
461
459
458
457
455
452
456
463
461
462
461
460
461
462
464
464
462
461
462
461
460
461
462
462
460
459
461
461
462
460
457
457
457
460
462
460
456
450
449
452
454
454
455
455
456
455
453
451
450
449
449
448
448
451
448
446
444
444
447
448
447
443
442
446
452
461
467
469
464
459
460
466
472
473
468
463
461
464
463
459
451
443
439
434
431
429
429
426
426
431
430
429
425
422
423
426
430
428
434
454
489
534
574
594
599
577
476
332
234
182
184
226
274
327
377
411
434
444
446
448
448
449
453
452
454
455
451
450
450
453
456
453
454
458
459
457
456
457
463
470
475
474
473
472
471
474
478
479
477
478
477
479
480
479
478
477
483
485
480
479
482
483
482
483
482
481
480
477
472
470
468
466
461
456
453
450
447
442
440
439
440
440
439
437
434
435
436
439
439
436
435
434
434
436
437
435
437
437
436
435
431
432
437
437
435
434
434
436
434
435
439
441
441
438
435
433
434
434
433
434
433
432
435
435
437
437
435
434
431
428
427
429
432
432
429
426
428
430
431
433
434
439
444
447
444
440
444
448
457
461
456
450
449
451
449
443
437
434
432
427
421
417
417
418
421
418
415
417
419
421
423
420
419
419
426
444
475
518
562
586
585
557
467
338
253
201
191
223
269
317
361
390
415
433
439
439
439
439
440
443
445
444
444
443
447
450
449
448
450
452
454
456
459
460
461
463
466
467
466
465
466
470
471
471
475
478
480
480
479
477
480
481
480
481
481
480
480
479
476
478
479
476
479
478
475
471
462
458
458
454
451
446
444
444
442
439
438
438
434
432
433
430
430
430
428
429
432
433
431
433
434
431
428
428
431
430
431
432
432
432
433
435
435
434
432
431
433
432
433
435
435
433
434
436
436
433
435
439
439
436
435
436
435
431
429
428
432
435
436
434
435
436
436
433
432
433
432
430
429
433
440
448
454
457
450
442
446
457
464
462
455
452
453
451
445
441
435
433
430
426
420
418
418
416
416
417
416
421
423
419
417
417
417
420
430
456
496
542
584
603
604
564
435
288
190
153
175
227
281
338
383
411
426
431
433
438
439
441
442
442
441
442
445
446
446
447
446
446
450
453
453
451
452
454
458
461
459
459
460
464
468
468
470
474
475
474
473
474
474
475
475
474
475
478
480
479
478
477
476
479
479
473
470
469
467
462
453
449
447
445
441
438
438
435
432
431
429
427
429
432
429
425
426
427
430
431
430
427
429
434
436
433
432
432
432
436
436
433
433
430
432
436
437
435
434
440
439
438
437
438
440
439
440
439
438
435
433
432
430
433
434
434
434
434
436
436
434
431
426
425
427
432
433
431
429
428
429
426
423
425
428
434
438
442
448
452
448
442
439
441
452
463
463
461
458
456
454
451
443
434
429
425
421
417
413
411
414
416
417
414
415
416
416
417
419
421
424
443
480
523
568
600
617
604
506
339
212
157
162
207
262
320
373
409
431
438
440
443
444
443
440
444
444
444
445
447
451
453
453
452
452
454
456
457
455
454
458
459
464
467
471
471
473
478
481
481
482
482
483
485
483
481
482
485
481
481
484
484
485
484
483
483
481
478
477
476
474
471
468
463
459
457
454
451
448
443
440
439
439
441
440
437
437
438
437
434
434
435
435
440
442
438
433
435
438
440
437
438
437
437
440
441
438
436
438
439
439
440
442
444
444
441
438
438
438
437
436
433
432
433
436
436
432
430
432
433
431
432
435
435
435
434
433
430
431
433
431
430
427
426
427
428
428
428
428
430
429
428
428
433
440
447
448
440
440
444
448
454
457
455
456
458
456
449
446
442
436
428
423
418
414
416
416
412
408
411
418
418
416
415
414
416
416
421
439
475
520
563
594
605
595
507
347
218
150
150
194
248
305
357
394
420
434
435
433
434
435
433
431
432
433
432
431
431
429
432
435
439
441
437
437
440
442
443
441
439
443
456
458
456
458
460
463
464
464
463
465
468
469
468
469
471
474
475
475
475
476
478
477
476
474
473
469
464
461
455
452
452
450
446
441
437
432
431
429
429
431
430
432
434
431
429
430
431
429
426
425
425
428
427
427
426
428
429
429
429
427
426
427
427
425
421
420
423
425
426
423
420
423
428
426
423
423
423
422
423
421
421
419
417
417
419
422
421
420
419
417
416
415
417
417
414
410
408
410
413
411
407
409
413
411
409
406
409
412
414
421
430
432
424
423
427
431
438
441
437
432
427
429
430
429
423
416
412
406
403
402
397
393
392
397
399
401
401
401
400
398
397
396
400
421
455
497
540
561
559
527
424
295
210
161
165
204
249
295
341
375
396
407
411
412
413
412
411
413
416
415
415
416
415
417
422
424
424
422
421
422
420
425
427
424
427
430
428
428
434
439
443
444
444
443
444
447
447
444
444
445
445
443
442
443
441
443
446
446
445
444
445
441
436
435
433
428
424
419
413
412
414
412
407
405
406
406
402
401
398
401
405
404
402
404
405
404
401
400
397
398
402
403
401
397
397
397
398
401
403
405
406
407
406
404
404
403
404
402
402
402
402
405
404
401
399
399
399
399
399
397
396
399
401
399
397
397
398
396
395
396
397
398
395
394
394
397
399
400
400
402
409
418
422
416
409
410
417
427
428
424
418
418
424
424
418
412
404
399
394
391
388
387
389
388
388
389
389
385
388
392
390
389
388
393
415
449
492
537
562
563
538
441
298
197
138
137
179
230
284
333
369
394
405
410
409
408
409
409
412
414
416
416
416
419
420
418
416
417
421
421
422
425
428
430
430
432
431
431
434
435
436
438
443
443
443
444
444
444
448
450
447
445
446
448
449
448
445
445
445
447
448
449
446
444
440
432
425
421
420
421
421
417
412
409
411
410
406
402
402
401
403
403
398
397
399
402
400
401
404
403
402
399
398
404
406
407
405
404
404
403
403
405
404
402
403
407
407
405
402
400
400
401
402
403
401
401
399
397
398
397
396
394
390
388
391
390
386
388
390
386
385
387
387
382
381
383
383
381
383
386
389
393
394
397
404
414
420
415
406
406
413
426
429
423
419
420
420
421
416
408
402
398
394
394
392
392
393
393
394
392
391
392
394
396
393
394
400
410
435
475
524
574
598
602
570
446
286
179
136
152
202
257
316
366
401
418
427
433
433
432
431
430
432
435
434
432
436
441
444
446
445
448
449
450
453
454
454
456
461
465
465
464
464
467
470
471
472
472
476
481
483
482
480
482
484
483
481
482
484
485
486
487
489
491
488
486
484
481
476
470
462
455
458
458
457
454
450
448
445
442
443
440
439
439
438
437
441
445
447
446
445
445
448
450
451
452
451
449
448
453
453
451
452
456
458
456
455
455
457
459
460
456
455
458
457
459
460
460
461
461
461
461
460
461
463
465
465
463
463
463
463
462
463
461
461
465
464
462
464
467
466
466
469
472
474
480
489
490
485
481
486
492
499
500
497
498
501
500
495
488
483
481
476
470
467
465
463
462
462
464
462
463
466
469
468
468
469
469
475
500
541
589
634
660
670
647
527
360
245
199
219
274
330
387
431
465
488
494
496
497
497
499
501
500
499
501
507
509
511
512
513
514
515
513
512
513
514
515
519
522
524
526
528
528
529
532
534
536
537
540
541
541
545
543
541
542
540
540
543
544
541
540
542
543
540
539
541
540
536
531
525
520
516
515
510
507
507
506
503
498
493
495
496
495
491
491
493
494
494
492
491
491
494
496
497
499
497
497
499
498
498
497
497
501
502
501
498
499
500
502
502
498
498
500
502
503
501
499
497
497
497
495
496
498
500
498
493
492
494
494
492
489
490
492
495
495
496
492
489
491
492
490
487
485
490
498
506
511
515
511
505
509
516
524
528
522
518
516
515
513
510
503
497
493
488
485
481
478
477
477
484
488
484
482
481
481
482
481
482
490
514
551
592
634
659
666
637
518
365
266
223
236
286
335
390
439
468
487
495
502
504
504
505
507
508
508
509
507
505
506
508
509
511
514
515
517
517
515
519
523
525
527
528
527
526
528
532
532
530
531
534
535
537
536
531
532
536
537
535
532
532
534
536
537
536
537
536
532
528
526
523
520
517
512
506
499
497
495
492
488
486
486
485
480
480
480
481
481
480
482
483
482
484
485
483
480
480
481
479
480
480
480
479
480
476
474
479
480
480
480
478
480
480
477
475
473
471
474
475
473
470
467
467
471
470
465
463
464
468
468
466
465
460
462
462
460
460
461
463
464
467
471
478
481
476
470
475
484
492
495
486
479
476
480
486
482
470
464
459
454
453
451
450
449
449
449
447
448
445
443
446
449
449
448
454
475
509
552
596
617
609
567
457
339
266
223
225
259
303
351
395
422
446
462
469
469
468
469
471
474
475
472
471
474
475
476
477
478
479
480
484
483
480
483
488
490
493
495
495
497
496
496
498
500
504
505
504
507
508
508
508
509
508
504
505
506
508
508
506
506
506
507
505
500
497
493
491
487
480
473
469
473
472
468
468
468
466
463
459
456
456
461
464
462
461
460
459
456
455
460
463
461
460
461
463
461
460
461
457
456
461
465
463
462
461
461
462
460
458
460
461
461
459
463
463
460
459
459
458
457
458
458
456
456
457
456
453
454
459
459
456
457
460
460
461
466
470
475
476
469
464
469
479
489
490
481
481
483
483
478
471
466
463
457
452
447
445
447
448
447
447
447
447
448
449
450
449
448
449
460
489
528
577
621
636
633
587
445
297
205
179
209
264
318
376
420
448
465
470
473
474
471
472
471
473
476
476
475
480
483
483
481
481
482
486
486
486
491
494
495
494
493
496
498
501
502
502
508
513
513
513
516
515
513
517
519
516
517
519
518
516
515
514
514
514
516
513
509
507
503
502
499
493
490
486
482
478
475
473
471
473
471
466
468
471
472
468
465
466
469
470
470
471
469
468
469
471
475
473
471
471
471
470
468
467
469
475
477
474
473
474
475
473
469
471
471
473
471
467
466
467
467
466
466
465
463
463
461
460
459
459
462
463
463
463
464
465
464
462
459
461
469
481
485
484
483
475
478
484
489
496
493
487
487
485
481
477
476
469
462
458
454
451
448
445
446
449
450
449
447
448
448
451
453
451
455
472
510
554
599
632
646
645
572
409
266
190
182
227
280
336
392
431
456
467
468
466
470
475
474
473
477
479
480
480
480
480
479
483
487
488
488
489
491
493
492
490
493
500
502
503
502
502
502
501
505
510
510
511
515
515
509
510
513
516
516
516
518
516
514
515
517
516
512
510
505
501
498
494
494
489
482
478
476
475
472
470
468
469
471
471
471
469
466
465
464
463
461
462
465
465
467
471
472
469
468
465
460
459
463
468
470
469
470
470
471
466
464
466
464
468
468
466
466
466
465
463
461
459
459
460
458
457
458
461
464
464
464
462
462
463
458
456
455
454
453
452
452
454
458
460
461
464
471
480
483
477
471
472
478
487
493
489
482
480
479
476
471
464
458
455
452
449
447
449
448
447
449
449
447
445
448
449
448
447
448
452
466
500
542
589
628
649
643
563
400
265
193
186
227
281
337
393
432
455
464
466
469
470
469
469
475
481
482
481
479
483
486
485
483
482
484
485
489
491
490
490
493
493
490
491
494
498
503
504
503
505
508
509
510
508
508
507
509
511
510
510
515
518
516
515
513
513
513
509
504
498
496
497
496
491
485
484
484
479
475
471
470
471
471
468
463
460
462
465
463
462
464
467
467
467
468
469
468
470
468
466
465
466
467
468
468
469
469
467
468
468
470
475
476
475
473
473
472
473
474
472
465
465
468
468
465
465
466
464
463
461
459
463
464
463
460
455
455
457
457
455
452
452
454
455
454
453
451
449
452
454
455
459
466
471
475
474
471
471
475
481
484
481
476
473
474
473
465
462
458
450
446
442
441
441
437
434
434
434
435
439
441
438
437
439
440
440
449
481
524
571
603
612
607
542
400
277
198
175
206
260
312
365
402
429
448
454
454
449
451
455
455
451
451
454
457
455
454
451
452
456
460
459
455
459
464
465
465
465
467
469
474
476
476
481
483
482
480
478
477
478
481
483
483
481
481
483
483
481
481
480
481
482
478
474
472
469
467
463
459
458
453
450
451
445
441
437
437
436
433
432
434
436
436
431
429
428
428
431
433
431
428
428
428
429
431
431
433
434
435
432
431
432
431
428
425
426
431
435
432
431
432
433
434
434
434
436
435
433
433
430
425
424
426
424
422
425
425
422
419
418
416
419
423
424
420
419
419
420
421
420
423
431
441
442
435
432
436
443
450
450
442
439
442
444
439
431
425
422
418
412
405
405
410
411
409
406
407
409
410
407
406
407
408
411
419
441
478
520
559
571
563
517
400
284
209
173
184
226
272
319
359
387
410
423
427
427
428
426
424
425
429
428
429
433
435
436
434
435
437
438
437
435
439
443
445
448
444
446
453
454
451
449
451
455
457
459
459
459
460
461
458
454
456
459
459
457
457
460
461
461
459
456
455
453
451
450
443
435
434
432
429
423
419
419
417
416
413
411
413
414
412
413
414
411
412
416
418
414
412
414
415
413
410
409
410
412
413
414
414
416
419
418
417
413
414
419
418
414
411
412
413
413
415
412
409
408
412
412
410
410
408
406
405
405
407
406
405
405
403
403
409
411
407
406
406
406
407
407
406
406
409
413
419
424
427
425
419
421
425
431
439
439
432
429
426
427
426
423
418
412
410
405
403
401
399
399
402
401
398
398
398
398
398
397
400
405
418
449
496
544
575
584
578
512
364
232
154
138
172
222
273
330
372
399
415
419
419
418
418
419
418
418
419
422
422
428
431
431
431
433
434
432
430
435
440
437
441
445
446
446
447
447
448
450
451
454
455
458
461
463
464
464
462
462
462
463
462
460
460
461
459
460
464
464
460
456
451
447
444
442
436
432
430
429
429
426
423
421
420
419
417
416
412
409
412
416
414
412
412
415
413
411
411
414
417
418
418
416
415
416
416
415
412
412
416
419
419
419
419
420
421
419
416
416
417
418
415
413
415
413
413
414
412
413
414
416
414
410
409
412
411
408
406
406
406
408
407
406
405
403
402
401
400
399
401
409
415
420
424
423
421
417
418
425
433
437
435
430
425
424
423
420
418
413
409
406
399
393
392
395
395
392
390
390
390
392
392
390
389
390
399
422
458
503
549
579
590
577
479
313
190
130
133
179
232
292
347
383
404
411
413
415
418
418
417
416
418
422
420
419
420
424
427
425
423
426
428
432
433
433
432
433
438
438
437
437
442
447
449
449
448
452
455
454
452
452
457
459
459
458
456
454
454
457
460
461
460
458
458
454
450
445
438
435
434
430
424
421
419
416
416
414
413
411
411
410
407
409
414
414
412
409
408
406
408
409
410
410
408
409
410
410
408
409
410
411
412
414
414
414
414
413
412
412
412
410
409
410
411
412
412
410
407
408
410
407
406
408
409
403
399
400
400
406
411
411
408
404
401
400
400
404
406
405
403
400
399
398
399
398
401
404
405
411
417
424
426
422
418
418
416
419
423
425
424
422
425
423
417
414
411
405
398
392
388
387
389
388
385
387
387
389
394
395
396
396
398
400
412
448
492
539
569
580
577
507
354
222
142
125
162
217
272
331
373
401
418
420
418
414
415
419
422
424
420
419
425
426
427
429
431
432
431
432
435
437
437
438
439
440
440
439
443
449
448
449
449
451
454
455
454
453
456
454
455
457
458
460
460
460
459
460
462
462
460
460
461
458
450
446
442
437
438
437
431
423
424
428
428
424
420
416
413
415
416
417
421
418
413
412
413
421
428
428
423
416
416
418
425
427
433
432
425
423
424
425
422
419
425
433
434
421
420
423
426
433
438
430
432
433
428
435
430
425
432
432
429
424
421
424
436
432
423
423
417
421
428
425
428
420
416
419
422
432
429
418
423
422
416
425
428
430
436
438
444
445
434
432
445
448
447
457
449
441
447
450
445
435
423
415
421
424
410
400
404
412
412
407
407
404
407
409
409
406
406
410
420
450
492
535
569
577
571
509
358
225
147
127
159
217
275
328
367
394
413
416
416
416
417
420
424
426
423
421
426
429
431
432
430
434
436
438
442
443
443
445
447
446
446
447
450
456
454
458
458
457
464
466
465
462
465
469
471
470
469
470
469
468
468
466
469
469
468
467
465
461
457
457
454
448
446
449
445
440
436
432
430
431
425
424
424
422
424
426
427
426
427
430
429
429
429
427
427
426
429
427
426
427
425
428
428
425
425
427
424
419
420
420
422
421
418
420
419
418
418
414
414
416
416
414
414
408
411
413
413
411
411
409
408
407
411
411
409
408
407
410
410
406
401
402
408
414
410
410
411
415
423
434
435
433
432
434
431
431
437
446
446
438
442
451
449
435
436
439
438
430
424
422
418
416
419
425
423
427
433
426
422
427
431
426
436
472
506
545
587
612
619
576
437
293
205
164
181
233
291
345
388
415
441
454
454
455
459
456
453
457
455
454
457
455
448
447
448
448
440
446
450
450
447
440
442
448
451
453
453
455
451
451
452
447
457
468
458
451
455
452
461
466
454
450
450
452
468
471
458
443
447
454
455
455
442
434
440
432
427
426
419
416
422
419
419
419
406
407
415
407
401
410
416
408
405
412
413
404
401
403
410
417
413
408
408
409
409
407
404
407
414
415
411
405
405
407
407
407
405
402
401
404
405
402
395
394
401
402
400
399
398
398
397
396
394
394
393
390
386
386
387
391
402
413
414
414
411
407
406
410
420
430
423
416
410
408
414
414
401
390
385
381
380
376
367
365
368
377
383
375
365
364
374
377
374
374
377
412
443
482
522
542
555
517
387
222
123
93
114
173
229
281
325
374
389
385
394
402
393
388
392
392
391
398
400
395
394
397
399
399
401
403
404
403
401
402
403
405
409
409
410
411
414
417
416
417
418
418
421
425
429
428
428
429
434
438
437
438
441
445
441
437
434
432
437
437
433
428
425
419
410
408
410
410
411
405
399
397
397
397
395
395
393
391
391
395
394
394
396
396
397
398
397
394
391
393
394
392
390
393
395
397
398
397
395
399
398
398
398
396
400
403
403
401
400
400
400
399
394
396
398
401
407
414
419
418
412
412
417
425
430
429
425
424
427
427
423
417
410
403
398
394
391
387
384
386
388
388
385
384
385
389
389
386
383
385
401
433
473
520
559
578
574
500
340
204
131
122
162
215
270
329
368
392
402
403
405
412
415
414
416
421
422
419
421
423
425
426
424
423
428
430
431
430
432
435
440
444
444
444
445
446
449
453
452
447
450
453
453
455
456
459
460
458
454
452
454
455
457
459
458
458
458
454
448
442
439
437
439
438
432
425
421
422
421
422
419
415
422
421
415
410
411
415
415
416
415
417
422
422
420
420
417
419
420
418
417
419
420
420
423
424
421
420
422
426
425
425
429
432
433
427
424
423
423
426
428
427
431
440
446
447
446
441
437
443
453
458
460
455
451
453
453
450
448
442
434
424
419
418
417
416
409
410
415
420
422
420
421
424
426
427
426
430
451
485
526
570
596
607
580
455
303
202
165
190
241
292
345
391
426
441
445
446
443
443
444
447
450
454
458
460
461
461
461
464
467
468
468
470
470
470
472
473
472
472
479
481
480
481
486
494
496
493
492
490
490
491
493
495
494
494
494
493
492
491
495
498
498
496
493
494
492
488
481
478
477
475
472
465
461
459
459
454
451
453
453
451
449
449
449
449
450
451
449
447
451
454
454
450
445
447
453
456
454
451
450
449
447
445
442
442
442
440
440
440
443
446
446
444
440
438
437
438
434
431
431
432
438
444
447
449
447
444
440
442
446
454
462
457
450
452
454
450
444
435
424
418
416
415
409
405
406
409
410
408
404
406
413
416
414
411
407
408
425
459
502
545
573
587
566
454
303
200
150
154
197
247
303
353
384
405
413
413
412
409
410
412
412
411
412
412
410
408
407
406
409
413
414
415
416
415
414
414
418
422
423
421
416
416
421
422
423
425
425
429
430
429
430
431
429
429
429
425
422
421
423
425
425
429
428
423
420
413
411
409
405
401
396
391
390
388
386
381
378
382
385
386
386
386
386
386
386
382
376
378
381
382
381
378
379
385
384
382
379
378
383
385
383
382
381
381
383
381
377
377
379
380
378
376
376
376
377
378
380
386
391
388
381
379
387
392
400
402
393
393
395
395
394
389
382
382
377
369
365
362
361
361
360
358
358
358
355
352
352
352
353
358
363
381
419
465
509
529
532
489
359
226
150
114
125
169
220
274
312
337
360
373
375
374
374
377
380
383
382
380
380
384
389
392
393
393
394
395
394
394
394
395
398
399
398
397
403
406
406
409
412
416
417
420
419
417
415
413
412
412
408
407
409
410
413
414
416
418
418
413
408
407
405
401
394
389
388
380
376
377
375
370
367
369
368
366
365
366
370
370
369
366
367
369
372
374
371
370
370
373
373
373
374
373
373
371
370
371
372
370
370
372
374
376
378
375
371
370
369
371
370
370
371
374
380
384
383
384
381
379
383
389
395
400
400
392
388
390
390
384
377
370
364
359
360
359
353
349
350
352
352
350
348
351
352
352
351
353
355
369
405
450
498
529
538
522
421
257
139
83
92
139
189
246
299
334
355
362
365
369
368
370
370
370
371
374
375
374
371
371
375
380
380
380
381
383
383
383
383
386
391
393
394
393
393
395
400
406
407
407
408
409
409
406
403
404
407
409
407
406
406
409
409
407
405
405
404
402
395
388
386
386
384
376
370
370
370
368
362
362
364
364
363
363
360
354
354
358
361
362
363
364
369
365
362
363
364
365
364
364
363
367
366
364
363
362
364
363
363
363
361
361
361
363
362
359
367
369
365
364
363
362
359
358
372
384
385
378
375
368
371
389
399
399
394
388
385
385
377
380
380
367
358
355
357
351
346
351
359
353
348
347
349
350
359
362
352
344
348
373
417
455
500
540
546
526
419
254
129
70
86
135
188
247
303
336
351
364
369
367
363
364
364
368
373
371
372
368
367
369
371
374
368
370
371
377
381
376
378
379
380
382
379
376
383
386
387
387
388
389
392
394
393
393
395
397
396
395
395
396
396
399
402
401
403
406
405
401
396
392
388
387
387
382
382
380
377
374
371
368
370
370
368
365
365
365
365
364
364
365
364
366
367
364
365
367
375
375
371
370
367
369
369
369
370
371
374
372
369
370
373
375
375
375
372
373
375
375
373
369
369
371
371
366
362
364
368
369
369
375
384
391
394
389
384
390
399
405
406
399
395
399
400
392
388
384
376
370
364
360
355
355
358
358
357
357
360
365
365
365
361
358
361
367
385
421
468
515
549
566
545
431
263
142
91
109
164
220
277
326
359
381
390
391
388
388
389
390
392
391
391
397
399
399
401
406
408
408
409
408
407
408
409
412
415
417
418
421
424
426
429
430
429
428
431
429
425
428
429
429
428
428
428
430
431
431
431
431
436
441
440
436
430
427
423
418
414
410
409
407
400
398
396
395
392
390
389
385
386
387
386
382
379
381
384
383
381
378
380
381
385
384
380
381
390
392
387
382
380
386
396
393
382
381
380
382
387
387
387
387
389
390
388
388
385
384
387
390
388
382
382
388
395
386
384
388
388
386
383
389
393
398
410
408
409
407
402
403
410
422
424
420
414
412
410
409
401
392
390
391
379
381
367
358
369
369
365
368
374
379
372
362
373
381
367
362
381
424
459
486
528
552
552
493
337
202
120
96
128
185
238
290
333
361
369
370
376
382
382
380
381
383
383
382
382
382
385
387
390
391
391
394
398
399
399
400
403
402
403
406
404
408
412
413
414
417
418
424
431
431
429
428
433
437
435
435
435
437
439
438
439
436
434
436
436
435
430
425
422
421
414
406
406
406
403
403
403
402
397
397
400
401
401
401
400
399
397
395
394
400
400
399
403
405
405
404
402
399
400
406
409
410
410
409
409
408
408
408
412
415
412
411
412
414
412
413
415
412
412
413
416
412
409
408
407
408
410
410
410
410
413
415
413
409
410
414
417
421
421
418
422
429
435
436
430
428
432
436
444
444
437
433
432
432
432
429
421
412
408
407
407
402
400
396
399
399
400
402
402
401
403
402
399
403
416
444
483
523
557
579
585
529
380
242
162
144
181
232
281
334
377
405
422
427
424
426
430
432
432
432
433
434
433
430
429
433
440
444
445
441
442
448
450
449
447
448
453
457
457
456
458
461
465
467
467
469
469
472
472
469
469
472
473
473
473
472
471
474
476
475
473
473
471
468
464
463
460
457
453
448
445
445
445
444
447
444
444
446
446
445
443
444
447
452
453
452
451
449
449
451
451
452
450
452
452
453
453
455
455
454
455
457
460
460
459
459
457
460
461
462
459
458
456
454
454
453
451
454
455
456
456
455
455
453
451
451
448
450
448
448
451
453
452
452
456
455
451
450
452
457
466
473
474
474
470
467
472
479
484
483
474
472
473
474
471
470
460
452
453
450
445
443
442
442
445
447
447
444
445
449
451
449
448
453
470
502
542
583
610
625
624
549
400
280
210
202
240
288
341
395
433
456
461
461
465
474
477
477
476
476
478
480
481
483
482
479
482
487
488
487
489
492
491
488
489
492
495
497
497
495
494
495
497
500
502
503
501
500
504
504
501
502
502
500
500
503
507
506
502
503
504
503
500
495
489
485
482
482
480
474
468
466
464
461
458
457
457
462
462
457
456
455
454
454
453
450
451
452
453
450
445
445
450
452
453
454
453
451
450
448
446
446
448
451
451
448
448
447
449
450
444
438
437
441
441
439
436
435
438
438
433
431
434
436
436
435
435
434
433
431
427
425
424
425
429
431
427
426
428
431
430
427
429
432
436
445
448
443
438
436
440
447
453
448
443
442
443
445
444
441
429
422
419
415
413
411
407
405
407
409
410
408
408
409
409
406
406
414
433
465
503
545
567
569
531
420
294
209
166
173
214
259
305
346
372
399
417
422
421
424
426
421
419
423
430
432
430
427
428
430
436
439
439
437
438
442
445
448
448
447
446
445
446
449
453
457
457
454
452
460
466
467
466
462
463
464
463
463
461
464
466
465
461
462
465
467
466
460
454
449
446
446
441
434
432
431
433
431
428
428
431
431
428
429
427
422
422
422
425
425
423
420
423
428
430
431
429
430
433
428
431
435
435
433
429
431
433
437
436
431
430
431
430
430
431
433
432
428
427
427
427
427
430
430
430
429
427
425
425
427
427
428
433
439
441
443
446
441
441
449
456
459
455
449
448
449
445
440
435
432
426
419
416
416
409
411
414
416
417
417
414
410
408
412
413
411
413
439
480
524
564
579
576
544
435
302
216
171
177
218
265
316
363
395
421
431
432
437
439
440
441
438
438
442
448
451
449
449
453
457
456
453
452
456
458
456
459
465
471
474
473
469
469
472
476
478
480
479
479
483
483
482
484
487
485
482
481
483
484
483
483
484
480
476
476
478
476
470
467
463
461
455
449
446
444
442
443
440
437
437
437
435
435
436
434
432
435
440
438
440
444
444
443
441
444
444
443
441
438
438
440
442
442
442
442
442
445
446
443
444
446
448
447
444
442
441
442
442
438
438
442
443
439
440
440
444
444
440
438
438
440
446
455
456
449
447
450
458
467
473
471
466
462
460
455
452
452
448
440
431
429
429
430
426
422
422
426
429
427
426
429
433
435
435
437
451
485
532
581
616
627
621
550
389
246
165
155
199
256
315
373
413
441
455
457
459
462
463
465
465
462
461
463
465
467
467
466
472
478
477
474
474
480
487
490
487
482
481
484
489
490
489
492
496
497
496
498
503
504
502
501
503
504
505
506
504
505
507
507
507
509
505
500
498
494
488
482
476
475
472
468
468
470
471
469
465
463
466
468
467
465
462
459
460
463
461
459
459
461
463
462
461
463
466
469
469
470
470
469
468
467
467
465
464
468
470
469
468
467
467
469
469
469
468
467
467
466
463
461
460
460
460
459
455
455
456
454
450
448
453
460
469
477
484
485
478
473
474
479
490
496
490
481
478
482
482
480
471
461
458
455
453
450
448
445
445
447
449
450
450
452
454
456
458
458
468
493
534
580
622
649
662
629
490
320
211
174
202
261
316
377
428
459
475
474
474
478
482
482
481
483
487
490
488
487
487
486
490
494
493
495
500
504
504
502
503
504
506
505
507
510
510
514
517
517
516
516
518
518
514
511
513
513
513
510
510
510
511
515
515
512
513
515
510
503
496
490
488
486
485
481
477
472
470
470
468
463
463
464
464
461
461
464
469
468
464
461
460
463
465
463
462
464
465
466
465
461
461
465
466
461
460
464
464
461
461
463
461
459
461
459
461
459
460
461
456
456
456
454
455
455
458
461
464
464
461
459
458
457
461
464
463
462
463
470
478
482
483
478
474
481
488
496
499
497
498
498
493
486
484
480
470
464
462
460
456
454
453
450
452
458
460
460
459
456
459
459
458
464
489
531
573
613
638
651
620
486
323
217
182
207
261
315
375
421
451
476
483
481
478
479
481
481
479
481
484
485
484
482
485
490
492
494
497
498
498
499
494
497
505
507
506
506
508
511
517
518
518
520
518
518
523
523
521
524
523
524
524
525
524
523
525
528
525
523
524
521
517
512
505
496
494
496
494
490
488
487
483
481
479
476
476
478
478
477
475
475
477
475
474
475
478
479
477
479
477
479
479
475
477
478
479
480
481
482
481
483
484
483
481
480
481
483
482
479
476
474
474
477
477
478
477
478
480
476
472
471
474
477
474
471
472
474
474
473
472
472
476
481
487
495
500
499
493
489
493
502
512
513
503
498
498
500
497
493
486
479
472
467
464
460
460
459
459
460
456
452
455
461
463
462
460
461
477
509
549
594
629
646
644
579
424
282
204
196
237
289
341
400
444
468
477
478
481
487
489
489
489
492
494
497
497
495
496
498
501
504
503
501
502
503
508
512
512
512
514
513
514
520
521
522
524
523
522
526
530
530
530
527
527
526
527
527
526
527
527
530
530
529
531
527
523
519
515
507
505
508
506
504
496
494
494
489
486
485
483
483
479
472
473
478
482
483
485
481
479
480
483
481
480
481
483
484
482
480
480
481
481
481
480
479
479
481
478
478
482
483
485
484
479
478
478
475
473
474
475
475
478
479
478
476
474
477
478
477
477
476
476
475
472
469
469
472
473
469
468
472
478
485
493
495
492
485
486
490
495
500
499
494
494
492
487
485
484
476
470
459
454
451
446
446
445
450
456
455
451
451
451
452
455
456
458
474
505
544
585
615
625
618
541
383
255
188
186
228
278
331
387
425
453
468
469
467
464
464
468
474
476
476
473
474
475
474
476
476
476
477
477
479
485
488
487
482
479
482
486
488
488
491
493
496
498
500
501
502
504
501
499
499
498
499
500
501
500
502
505
503
500
497
494
493
489
485
477
473
474
473
470
468
463
458
454
452
448
449
448
448
445
441
445
448
446
445
444
442
441
442
442
441
442
441
444
444
440
439
440
443
442
442
440
434
440
446
445
441
439
440
439
435
432
432
435
437
438
437
434
431
430
429
427
426
426
429
429
428
428
427
428
427
423
418
418
427
428
431
437
440
439
433
434
442
451
456
451
445
440
442
444
440
435
427
421
415
412
409
410
411
405
404
404
402
406
409
411
413
410
407
411
428
460
497
536
558
562
534
442
322
240
190
185
215
254
295
341
373
399
416
423
425
423
424
425
427
428
431
430
430
431
433
437
439
437
436
435
439
442
444
444
440
440
441
441
440
440
442
446
448
446
444
448
451
452
451
449
451
450
448
447
449
447
449
450
449
448
448
446
444
442
438
431
422
422
423
421
418
415
415
413
411
406
402
402
404
405
406
408
406
404
404
404
403
400
398
399
402
405
407
406
404
402
401
402
402
404
407
409
410
412
410
407
406
406
403
399
405
410
409
406
401
397
396
393
392
393
396
399
407
414
416
411
406
408
415
420
426
428
421
415
412
409
408
407
400
398
395
389
387
382
378
377
380
384
383
379
378
382
386
385
385
389
409
446
488
529
549
545
512
413
287
210
164
158
190
231
274
320
354
376
390
399
401
405
414
415
411
408
407
407
408
410
412
415
421
424
424
421
420
421
423
425
424
423
425
429
433
430
432
438
443
443
440
441
444
444
440
434
432
438
441
441
445
446
445
447
446
444
441
436
434
433
427
423
421
417
410
406
403
403
403
401
397
395
395
394
394
394
389
390
395
395
393
395
396
396
399
398
394
395
398
401
401
397
396
399
402
403
401
402
407
407
404
403
401
402
406
405
402
399
399
402
404
401
402
405
411
417
420
420
417
412
413
420
427
432
432
427
426
425
424
418
413
407
400
393
389
389
385
380
379
381
383
387
387
385
383
385
389
392
396
416
454
498
544
575
583
564
467
305
181
121
124
170
224
280
333
370
396
403
399
402
407
409
412
415
417
417
419
420
420
420
424
425
423
426
430
432
433
433
431
430
432
437
439
443
444
442
443
445
449
452
454
455
456
454
449
447
448
449
450
449
449
449
448
449
449
444
442
438
431
426
421
415
413
412
409
405
400
395
396
400
399
399
401
403
404
400
398
396
397
399
397
397
397
395
397
398
399
400
403
403
402
405
407
411
413
410
405
406
409
409
408
408
409
408
409
410
408
409
410
407
406
407
406
406
408
418
429
431
433
430
428
431
436
445
446
437
431
431
430
430
429
420
414
411
404
401
398
395
393
394
396
397
398
397
395
396
399
400
403
410
434
475
523
572
601
613
580
439
264
149
115
145
201
259
321
366
396
413
422
421
424
427
423
423
426
429
430
430
430
432
433
435
439
438
439
443
441
440
442
444
446
448
449
451
454
454
453
456
461
465
468
470
471
470
469
467
466
463
461
461
461
463
463
462
460
459
463
463
458
453
447
443
436
429
425
422
423
420
417
416
416
414
415
417
417
415
416
417
416
414
415
416
415
416
414
413
413
414
416
415
416
420
422
421
423
426
425
424
423
420
422
424
426
423
420
421
424
424
422
424
426
424
424
426
426
423
422
423
420
419
419
421
425
428
438
444
448
448
446
446
450
457
462
457
450
449
452
450
447
441
429
422
422
420
411
410
412
413
413
410
406
407
415
419
420
421
421
426
448
482
523
569
604
624
613
506
332
200
140
148
200
259
321
374
409
427
434
437
439
441
442
441
442
444
446
444
442
442
445
446
447
446
447
452
454
454
458
459
459
462
460
458
462
467
472
471
471
472
475
479
478
478
479
480
481
480
478
478
479
481
482
482
484
483
479
477
472
467
464
461
457
453
446
445
444
443
441
440
440
440
437
434
433
435
437
439
436
434
433
433
433
435
435
436
438
441
440
439
439
439
437
437
439
442
444
443
441
441
442
443
441
444
444
442
441
442
443
442
440
439
437
437
442
442
439
438
435
433
434
438
441
440
438
439
442
440
435
435
436
438
446
457
463
464
454
449
459
470
475
469
463
460
463
462
455
453
448
440
435
430
425
424
425
422
421
423
427
432
431
428
427
427
431
427
435
464
506
555
593
610
611
561
415
267
178
157
194
250
307
363
403
432
450
455
453
452
455
457
460
461
460
460
458
458
463
466
464
466
469
469
473
474
474
481
484
485
484
485
484
481
482
480
485
493
489
481
481
482
488
486
485
488
486
484
484
489
488
488
495
498
497
491
487
486
486
484
482
475
465
465
472
475
468
465
465
464
468
466
461
461
466
467
465
465
466
465
465
463
464
474
478
473
474
474
472
478
476
473
468
464
473
484
480
477
473
468
471
467
460
462
461
457
460
454
451
461
465
448
439
445
447
442
434
426
430
440
438
436
433
428
425
429
430
430
433
437
433
439
444
447
456
455
451
451
458
462
461
455
457
458
450
447
451
435
422
422
418
421
420
408
410
412
419
421
420
419
424
421
414
418
428
445
481
525
567
597
612
581
448
280
166
128
154
205
260
325
382
420
440
447
443
442
444
445
442
445
448
449
448
446
445
445
449
455
455
451
453
459
463
461
459
460
461
463
465
463
464
466
466
468
466
467
470
471
469
466
470
473
470
466
464
466
469
472
473
471
471
472
469
465
461
458
455
455
458
456
452
448
445
445
446
446
444
440
438
437
438
437
438
441
442
438
440
442
441
444
445
443
442
446
446
444
444
447
445
443
445
449
451
450
446
440
439
446
451
452
447
443
445
449
450
447
444
443
443
445
448
448
452
459
462
464
462
457
459
468
475
480
484
479
477
476
472
468
467
463
453
444
444
442
436
431
433
434
434
435
436
435
434
438
441
442
444
457
492
535
578
609
626
624
542
380
250
182
177
219
275
333
384
421
449
466
466
464
470
475
476
479
478
476
475
478
479
476
478
481
482
484
486
489
491
493
492
493
494
496
500
502
505
506
508
509
508
507
506
511
514
513
516
518
520
521
521
518
515
515
519
522
518
514
513
513
511
504
497
490
490
493
491
488
487
486
485
482
479
477
477
478
476
476
477
479
479
477
477
473
476
481
481
482
482
483
483
482
482
482
483
481
481
481
479
480
480
481
481
479
480
480
484
483
480
481
483
485
482
480
481
487
498
500
502
501
494
497
505
515
521
517
511
509
509
503
496
490
487
481
473
472
472
469
465
462
465
467
467
472
473
472
472
472
471
475
495
531
573
617
645
660
648
540
380
264
208
223
273
322
382
434
468
488
494
495
492
493
496
498
499
496
498
502
504
508
505
508
511
514
512
512
517
518
515
516
519
517
521
526
528
530
535
540
541
540
539
540
543
542
540
540
539
540
540
541
543
541
543
548
550
551
550
550
548
544
539
531
524
520
517
515
512
510
511
510
509
507
508
512
513
510
509
509
509
509
509
509
509
512
513
513
512
510
513
518
518
513
511
517
524
522
518
515
514
513
512
510
515
521
520
518
517
517
517
517
516
515
516
517
517
517
520
525
532
538
542
538
529
527
536
548
556
554
545
542
544
541
536
531
522
520
519
514
509
505
506
508
509
507
506
510
516
513
512
511
508
513
526
552
590
630
665
683
679
611
470
350
276
262
294
344
396
444
482
508
521
529
531
532
529
529
532
531
532
532
536
543
546
546
544
541
541
543
546
547
549
550
550
549
549
552
555
557
560
562
561
562
566
569
568
562
563
567
566
567
570
573
576
577
576
571
570
576
573
570
566
563
561
558
553
550
544
543
540
535
534
534
533
532
530
529
528
527
530
529
526
525
526
529
531
531
533
535
536
535
534
533
534
536
537
535
530
531
532
535
538
537
536
536
534
532
529
531
533
534
532
532
532
532
531
529
526
529
531
530
527
523
519
523
531
532
530
532
539
546
550
549
542
538
543
549
561
561
553
550
545
543
541
536
530
526
520
512
508
505
504
502
501
502
501
498
498
501
504
506
506
505
508
534
574
617
653
670
676
623
480
350
272
249
277
327
376
422
457
484
499
504
505
506
506
507
508
505
504
512
514
514
513
511
512
516
519
518
516
517
519
522
523
519
517
517
518
520
520
523
525
527
522
516
516
520
524
524
521
517
515
512
511
514
515
517
519
520
520
518
518
515
509
503
498
494
489
486
484
481
478
473
470
465
463
465
467
469
466
462
462
462
462
464
465
464
464
465
466
464
461
460
460
464
464
461
459
459
461
460
457
455
453
453
452
450
452
455
453
448
444
444
445
444
438
434
433
437
439
434
431
431
434
438
436
436
440
448
450
441
434
440
451
458
459
450
442
442
446
447
443
431
423
420
416
414
407
407
409
407
404
406
406
406
408
408
407
406
405
410
426
456
493
537
564
560
522
420
296
221
173
168
201
248
293
338
370
394
410
416
417
417
416
415
414
414
415
415
418
421
423
424
423
423
423
423
424
425
429
436
438
435
431
432
433
436
438
437
437
436
438
442
440
439
443
443
443
440
439
443
448
445
440
439
438
436
434
434
434
433
430
424
417
411
411
413
411
405
399
398
395
396
396
391
391
394
396
394
391
393
397
398
396
395
392
391
394
393
389
390
394
399
400
397
391
386
388
392
393
393
393
396
397
394
391
388
389
391
389
386
383
383
387
394
399
401
400
397
392
395
404
415
421
412
402
403
402
397
391
387
384
381
376
372
370
365
361
361
361
363
363
364
365
365
364
362
364
370
389
426
470
512
532
532
491
375
248
171
126
127
164
209
257
303
335
361
376
377
380
382
382
383
386
389
390
392
391
389
392
396
397
396
398
401
401
402
406
409
412
412
410
408
409
412
413
414
415
415
415
418
419
416
414
414
417
415
411
406
403
405
404
404
404
401
395
393
393
389
385
382
377
372
368
366
364
362
361
363
365
364
361
358
357
358
356
354
356
356
356
356
355
351
348
350
353
355
355
353
357
361
363
363
362
364
365
366
365
364
364
362
364
363
362
362
360
359
359
359
355
355
365
372
378
380
379
373
369
373
381
390
390
386
382
380
379
376
372
365
357
352
350
348
342
338
337
340
344
344
344
346
345
343
342
343
344
355
389
435
486
526
539
533
475
326
178
89
68
105
159
213
271
316
345
358
360
365
370
373
374
372
371
375
378
376
375
379
382
382
383
388
389
393
395
393
396
397
397
401
404
404
404
407
410
411
414
413
412
414
420
423
422
421
420
421
421
419
417
419
423
423
420
417
414
412
406
401
398
394
391
389
385
381
378
378
376
371
371
373
376
376
375
371
367
370
373
372
368
370
374
375
376
375
375
377
378
378
377
374
372
374
374
372
374
377
379
379
377
376
377
380
380
378
379
379
379
379
378
376
373
370
368
372
377
386
395
397
392
389
395
403
410
411
403
397
394
394
392
387
385
381
375
366
359
357
358
359
358
355
352
355
361
362
361
363
361
362
366
386
423
470
523
557
573
560
455
281
150
87
94
150
208
267
320
352
376
387
388
385
384
387
389
393
395
395
397
398
401
400
398
400
404
406
404
404
404
407
411
412
415
417
415
418
421
424
424
424
426
428
428
430
432
431
430
429
429
430
429
430
430
428
430
432
432
432
426
420
417
410
404
404
402
399
397
393
389
386
386
386
383
380
379
381
381
380
381
378
374
376
378
379
379
381
386
389
388
386
386
383
377
377
379
382
385
385
385
384
386
387
386
387
383
381
382
387
385
382
382
384
384
382
379
376
376
377
375
373
370
371
375
377
375
377
387
396
401
402
396
389
390
398
408
408
402
396
398
400
395
393
387
379
373
368
365
363
362
361
360
360
359
365
369
364
361
362
363
363
367
379
411
459
510
547
564
562
489
323
173
90
82
130
191
250
305
346
372
384
385
386
386
386
387
387
387
388
390
393
390
387
388
394
402
405
406
404
403
407
403
401
408
413
415
418
418
417
421
424
424
425
425
424
427
432
430
426
425
428
427
426
428
429
427
424
424
426
426
424
422
417
410
405
400
398
396
392
390
387
388
385
377
375
380
383
383
380
377
378
381
382
380
379
382
386
389
388
385
385
385
386
386
382
380
381
386
388
387
387
388
390
390
387
385
385
385
386
388
390
387
385
388
385
382
385
385
384
382
379
379
381
381
379
377
380
379
380
380
378
381
384
390
396
398
404
402
399
406
411
417
419
415
407
400
401
402
402
398
390
382
381
383
376
372
372
374
375
373
371
371
372
375
377
377
377
384
400
432
472
516
552
572
566
475
301
160
95
103
154
212
274
328
363
382
389
393
393
397
400
399
399
400
402
405
404
405
407
411
414
415
414
413
416
418
416
414
421
427
430
431
430
435
438
438
440
441
440
442
443
442
442
443
442
443
442
442
443
443
448
449
449
450
451
449
444
436
431
428
428
428
425
423
420
418
418
416
415
414
412
412
412
411
410
412
415
417
417
420
420
421
420
418
419
420
422
423
421
422
424
425
424
422
425
428
431
428
425
427
429
430
429
428
428
428
431
433
434
430
430
430
432
435
435
436
437
437
438
436
432
434
438
438
435
435
437
438
437
436
434
436
439
441
443
450
454
460
462
458
452
451
457
466
472
470
466
468
472
471
464
460
455
447
443
441
440
442
441
438
438
442
445
447
451
451
453
451
451
455
466
501
542
591
627
635
632
571
421
282
201
190
231
286
339
398
441
470
483
487
489
489
490
492
494
497
501
500
504
509
510
508
510
514
517
517
516
518
519
520
523
526
531
534
538
539
538
540
543
545
549
549
550
552
551
548
550
554
558
559
560
559
559
561
564
564
562
558
555
557
558
555
549
545
545
542
536
531
531
532
532
529
528
527
527
526
525
522
525
529
530
531
530
528
530
533
533
535
535
538
541
540
538
539
540
541
540
538
537
538
539
538
540
539
539
539
541
541
544
544
544
544
540
534
536
544
543
541
542
548
549
547
544
542
541
544
547
545
544
545
543
546
545
544
545
545
544
546
550
551
554
567
575
571
566
568
572
581
587
584
579
577
578
580
573
564
557
555
550
541
537
541
547
543
542
544
545
544
544
541
540
543
547
550
562
595
638
684
710
713
694
609
471
371
313
306
343
392
441
488
518
544
561
567
567
567
570
571
572
572
576
580
579
578
578
577
577
578
578
578
577
576
577
581
584
587
588
588
592
597
598
593
590
592
596
596
591
590
592
590
592
590
592
594
596
597
595
595
596
597
595
589
587
585
581
578
573
571
567
565
564
562
557
557
559
560
558
558
558
558
552
546
548
553
558
557
557
557
557
558
556
552
552
556
558
557
557
554
553
552
551
551
551
554
558
556
554
553
554
556
556
553
552
554
555
555
553
552
552
553
554
552
549
551
555
550
546
549
553
555
554
552
551
550
554
564
572
572
567
561
562
573
580
579
577
575
574
576
577
573
568
561
555
548
547
544
543
543
539
537
542
547
546
540
536
537
542
545
546
564
597
632
667
690
692
661
565
443
372
328
320
350
395
439
480
510
532
549
558
558
559
562
564
564
566
568
570
571
570
573
577
577
579
579
578
575
578
583
581
583
584
585
588
587
585
586
591
597
599
600
600
599
598
595
597
596
598
600
598
598
596
596
597
599
599
598
596
595
592
585
579
573
571
570
567
563
558
557
556
553
549
548
550
552
555
557
553
550
552
553
551
549
554
557
554
552
551
553
554
556
556
555
557
559
557
555
554
556
555
555
556
556
558
555
553
552
554
556
554
553
549
548
548
553
552
548
548
550
549
551
553
551
550
552
557
562
566
568
567
558
560
569
577
584
587
580
573
569
568
567
568
560
547
541
536
533
533
531
531
535
535
535
534
533
532
533
536
538
541
562
600
643
690
715
719
699
598
440
329
273
278
323
372
426
482
518
541
550
552
557
559
558
561
560
557
558
562
564
563
565
566
565
565
566
567
568
568
570
572
574
576
577
575
576
578
584
589
587
588
591
592
594
591
592
593
593
594
595
595
593
593
593
593
591
591
594
590
587
584
576
571
567
565
562
555
550
549
554
553
548
543
543
545
544
541
541
542
545
544
541
539
540
541
541
541
543
546
545
543
543
542
545
548
549
549
544
545
548
547
546
542
541
539
538
537
533
532
535
538
538
538
535
533
534
533
534
532
529
530
531
531
531
531
532
534
541
550
557
561
558
552
550
555
564
570
564
553
553
554
553
552
546
537
528
523
521
517
514
517
525
527
525
522
520
519
521
522
517
517
534
558
594
637
685
721
732
712
597
423
297
245
264
315
373
436
487
520
538
545
548
552
554
554
554
555
556
559
561
561
564
567
566
563
562
564
567
567
569
572
574
574
573
574
574
578
583
583
583
582
584
590
595
593
589
590
592
588
588
586
586
590
595
596
594
595
596
593
588
582
577
575
574
567
561
559
557
554
551
550
549
547
547
546
546
544
544
547
548
547
545
544
544
542
539
543
546
547
550
551
549
550
551
549
546
546
546
547
552
553
547
546
548
549
547
545
541
545
550
549
545
547
548
547
543
543
543
542
541
539
539
540
540
540
539
537
538
541
542
545
549
552
558
565
566
556
552
558
566
572
568
562
559
560
559
554
552
543
534
531
528
523
519
519
523
524
521
519
519
518
516
518
522
524
527
540
572
611
657
697
717
719
648
486
336
253
246
288
341
402
464
501
525
540
543
543
543
541
541
545
548
548
549
548
548
551
551
547
548
554
555
553
552
554
555
558
560
559
560
564
567
567
568
569
572
575
575
573
573
576
577
576
575
573
572
571
573
573
574
577
580
581
576
571
568
566
562
557
553
548
545
543
538
536
535
534
536
533
529
527
528
533
535
533
532
535
537
537
535
531
530
531
533
533
529
530
533
534
535
534
535
536
538
538
538
539
542
541
539
537
533
533
535
533
531
529
529
532
533
532
532
530
527
525
527
523
517
519
521
523
521
522
523
523
527
528
528
528
532
532
531
539
549
555
553
542
537
544
555
564
566
563
563
564
562
556
552
545
541
536
530
525
521
523
526
524
524
525
526
526
526
528
531
532
532
537
560
595
644
687
706
710
672
537
382
285
250
275
332
390
447
490
518
535
542
544
547
549
551
553
550
549
551
557
560
558
561
562
561
564
566
564
563
566
570
570
571
574
576
580
582
583
582
583
586
588
589
587
586
585
589
589
588
588
587
586
585
583
585
590
594
592
592
590
587
585
579
575
569
564
564
560
554
550
547
547
548
548
547
550
552
550
548
545
548
550
549
547
550
550
548
550
550
549
549
550
551
551
549
546
546
549
550
546
549
554
557
555
554
552
548
545
547
548
546
544
545
548
547
546
547
550
550
548
544
545
546
544
540
539
539
543
547
546
544
546
545
544
541
539
540
540
542
541
540
541
546
552
555
560
561
557
554
557
565
569
572
569
563
561
564
564
560
554
545
535
533
533
530
529
528
528
529
529
527
526
527
529
533
533
531
539
567
606
646
683
702
708
662
521
376
289
265
295
344
398
456
501
532
551
554
551
552
556
560
559
556
557
556
555
559
559
559
563
565
566
566
567
566
566
567
570
573
577
578
580
580
580
582
586
588
588
586
588
593
592
591
591
591
592
591
590
588
588
593
594
592
590
590
593
589
582
577
577
574
571
564
558
557
555
551
547
545
544
544
544
542
541
544
547
546
544
545
547
548
549
549
545
541
543
545
547
546
545
547
547
545
545
543
545
548
547
545
544
544
542
543
545
543
546
548
545
540
539
540
539
542
542
539
538
536
537
536
534
533
532
534
533
530
529
530
529
525
526
528
531
532
535
535
530
529
535
538
539
541
547
551
553
551
548
547
550
558
567
567
560
559
562
563
557
549
540
535
529
524
522
519
518
516
517
517
519
525
529
527
524
523
524
527
547
584
625
668
690
697
679
574
418
309
259
271
315
366
426
480
514
535
539
540
542
543
544
545
548
546
543
542
544
551
553
549
549
553
556
557
556
552
555
562
565
564
563
566
569
569
568
570
577
581
581
580
579
581
584
582
582
581
581
583
583
583
582
586
588
587
585
580
579
577
573
568
563
560
559
558
554
550
547
545
545
545
543
541
539
539
541
540
536
539
541
541
542
541
542
541
543
545
543
544
547
545
545
543
542
544
545
547
547
546
545
546
545
544
545
547
547
545
541
539
539
538
537
539
539
539
537
536
539
538
537
537
537
535
531
532
534
534
535
535
536
532
530
528
524
527
530
530
528
525
527
530
536
541
542
544
544
545
541
536
542
553
554
551
548
546
550
549
542
534
525
518
514
510
506
505
505
507
507
508
507
507
507
508
508
509
514
528
560
598
637
666
677
663
573
424
317
260
259
297
344
393
445
483
506
515
520
523
526
528
526
525
525
526
522
521
525
532
533
533
533
531
535
541
540
538
538
541
544
546
546
544
546
547
549
548
547
550
550
552
552
551
553
552
552
552
550
548
547
548
548
547
549
551
550
543
537
535
536
535
530
525
518
515
513
510
508
503
504
506
507
506
502
500
498
500
503
506
505
504
504
504
503
501
503
504
499
493
493
495
499
502
500
499
500
505
504
500
500
499
500
502
500
494
493
497
497
497
495
493
494
493
494
494
491
492
494
490
484
486
486
487
486
482
481
481
484
484
482
483
486
488
490
495
497
495
489
487
491
499
508
509
501
496
496
500
502
494
480
472
473
473
470
466
462
460
461
464
465
465
467
466
464
464
463
463
475
506
544
582
610
614
595
517
390
307
261
249
271
307
346
387
425
454
476
483
483
484
485
486
484
485
488
488
490
491
495
496
498
498
496
497
498
502
505
506
508
510
510
508
510
512
514
516
513
511
512
516
516
516
518
519
519
519
519
519
518
520
523
523
521
521
524
524
519
515
513
506
501
501
497
492
489
489
487
484
482
479
474
475
476
473
471
474
481
479
475
476
477
478
478
478
477
473
474
478
481
483
483
480
478
479
480
478
479
479
481
480
480
482
482
478
479
481
481
482
480
474
476
481
480
477
473
473
474
476
476
475
475
475
478
480
483
488
496
498
491
490
495
503
511
506
496
495
498
497
495
488
480
478
473
468
466
462
459
458
460
462
462
461
462
462
458
459
459
465
492
535
581
619
636
636
595
468
321
227
191
214
265
316
370
416
447
467
473
472
474
475
475
473
474
474
475
478
479
477
471
476
485
485
484
486
488
492
493
493
493
495
497
499
503
506
511
511
508
507
510
514
514
513
513
515
516
518
519
517
517
517
514
513
511
511
511
510
504
497
493
489
487
486
483
481
477
477
475
473
473
471
469
467
465
464
465
466
463
462
463
466
468
465
467
468
470
473
471
470
469
469
469
470
471
467
468
474
474
470
465
464
467
471
471
472
470
469
471
471
468
468
470
471
469
468
465
462
462
467
466
465
468
475
482
484
486
485
483
486
493
499
500
496
490
488
487
485
485
481
473
466
463
457
452
453
453
455
458
459
459
456
455
453
454
456
459
467
492
533
579
622
647
657
624
492
327
218
181
210
262
313
371
419
454
476
479
477
479
483
485
485
483
483
490
494
491
486
487
488
488
490
492
493
497
500
501
499
500
503
505
505
508
510
511
514
512
511
513
514
516
517
516
517
520
521
519
517
517
519
521
519
517
517
515
515
510
506
501
497
495
489
485
481
479
477
476
474
469
469
473
474
471
470
469
469
472
473
471
466
464
469
472
471
470
469
473
474
474
473
472
470
470
471
471
470
472
472
470
467
466
471
472
470
469
468
467
468
468
467
466
464
464
463
464
465
463
466
465
464
464
465
466
464
462
464
472
482
486
485
482
480
483
487
492
491
489
490
485
484
482
479
473
466
461
456
452
448
447
447
445
443
446
451
454
454
452
452
453
452
460
486
527
576
620
643
649
616
483
319
211
176
205
262
317
373
416
449
471
476
476
477
477
478
481
481
478
479
480
483
486
485
488
490
489
484
484
489
493
495
494
494
495
497
503
503
503
507
510
511
510
511
514
517
518
515
513
513
516
517
517
516
517
519
518
515
511
508
509
509
505
498
491
486
485
483
479
474
474
476
474
470
469
469
468
471
469
465
462
462
465
465
465
465
466
469
466
464
465
467
470
468
465
464
465
469
471
467
465
470
472
471
469
466
466
467
469
468
465
462
462
465
465
464
463
464
465
462
457
456
460
462
458
454
454
458
461
459
455
454
455
459
460
458
455
452
453
458
463
469
473
477
474
469
467
470
481
489
482
474
473
474
472
467
464
460
455
452
446
440
438
439
444
443
440
441
442
442
443
441
442
445
449
462
492
533
580
616
630
625
554
399
263
186
176
215
269
325
385
427
450
460
461
462
464
465
470
471
471
471
469
467
468
470
470
471
475
476
475
479
477
475
479
483
483
483
482
482
484
488
488
488
490
494
495
498
498
496
497
496
493
490
493
496
498
496
495
497
497
497
496
492
486
483
480
474
469
466
465
465
461
456
452
448
451
453
453
452
450
448
447
449
449
449
453
452
450
449
450
450
451
452
453
452
452
452
451
450
453
456
457
456
453
452
454
454
453
451
451
450
450
449
448
447
448
448
446
446
445
442
445
448
446
442
441
442
442
441
437
438
438
438
439
439
438
437
437
435
435
433
433
437
440
438
438
436
439
445
449
455
460
460
456
452
453
459
468
473
469
462
458
463
465
459
450
443
438
436
434
427
425
424
422
423
421
427
431
432
433
432
433
434
435
444
476
517
562
597
609
603
535
